20.0     2538
20.02    2594
20.04    2550
20.06    2550
20.08    2564
20.1     2520
20.12    2517
20.14    2584
20.16    2568
20.18    2532
20.2     2549
20.22    2558
20.24    2582
20.26    2567
20.28    2560
20.3     2549
20.32    2587
20.34    2552
20.36    2573
20.38    2624
20.4     2541
20.42    2477
20.44    2538
20.46    2544
20.48    2519
20.5     2557
20.52    2591
20.54    2604
20.56    2533
20.58    2537
20.6     2531
20.62    2578
20.64    2579
20.66    2606
20.68    2581
20.7     2582
20.72    2596
20.74    2564
20.76    2563
20.78    2557
20.8     2559
20.82    2582
20.84    2541
20.86    2512
20.88    2598
20.9     2546
20.92    2516
20.94    2552
20.96    2514
20.98    2557
21.0     2590
21.02    2595
21.04    2613
21.06    2605
21.08    2548
21.1     2584
21.12    2576
21.14    2610
21.16    2578
21.18    2526
21.2     2562
21.22    2631
21.24    2590
21.26    2626
21.28    2578
21.3     2537
21.32    2570
21.34    2584
21.36    2589
21.38    2562
21.4     2561
21.42    2622
21.44    2588
21.46    2621
21.48    2636
21.5     2563
21.52    2582
21.54    2595
21.56    2563
21.58    2551
21.6     2591
21.62    2571
21.64    2582
21.66    2555
21.68    2546
21.7     2580
21.72    2617
21.74    2587
21.76    2586
21.78    2540
21.8     2530
21.82    2599
21.84    2538
21.86    2521
21.88    2558
21.9     2592
21.92    2595
21.94    2605
21.96    2559
21.98    2575
22.0     2597
22.02    2626
22.04    2613
22.06    2624
22.08    2617
22.1     2584
22.12    2612
22.14    2587
22.16    2629
22.18    2660
22.2     2651
22.22    2669
22.24    2635
22.26    2643
22.28    2637
22.3     2654
22.32    2631
22.34    2601
22.36    2653
22.38    2630
22.4     2568
22.42    2559
22.44    2659
22.46    2673
22.48    2672
22.5     2701
22.52    2782
22.54    2764
22.56    2800
22.58    2758
22.6     2728
22.62    2782
22.64    2660
22.66    2705
22.68    2812
22.7     2858
22.72    2837
22.74    2775
22.76    2763
22.78    2765
22.8     2829
22.82    2886
22.84    2814
22.86    2807
22.88    2853
22.9     2854
22.92    2888
22.94    2861
22.96    2918
22.98    2855
23.0     2857
23.02    2909
23.04    2843
23.06    2922
23.08    3020
23.1     2995
23.12    2897
23.14    2921
23.16    2866
23.18    2951
23.2     2946
23.22    2890
23.24    2915
23.26    2912
23.28    2898
23.3     2948
23.32    2949
23.34    2914
23.36    2922
23.38    2938
23.4     2923
23.42    2947
23.44    2946
23.46    2926
23.48    2977
23.5     3039
23.52    3043
23.54    2972
23.56    2965
23.58    2937
23.6     2935
23.62    2860
23.64    2929
23.66    2954
23.68    2932
23.7     2924
23.72    2925
23.74    2902
23.76    2925
23.78    3044
23.8     2979
23.82    2956
23.84    3012
23.86    3025
23.88    2973
23.9     3061
23.92    3105
23.94    3077
23.96    3143
23.98    3186
24.0     3096
24.02    3047
24.04    3130
24.06    3220
24.08    3189
24.1     3234
24.12    3277
24.14    3307
24.16    3314
24.18    3308
24.2     3366
24.22    3345
24.24    3386
24.26    3456
24.28    3480
24.3     3527
24.32    3622
24.34    3642
24.36    3699
24.38    3801
24.4     3873
24.42    3887
24.44    3966
24.46    4039
24.48    4018
24.5     4083
24.52    4266
24.54    4418
24.56    4476
24.58    4534
24.6     4626
24.62    4641
24.64    4792
24.66    4938
24.68    5011
24.7     5042
24.72    5216
24.74    5361
24.76    5432
24.78    5441
24.8     5489
24.82    5665
24.84    5822
24.86    6015
24.88    6081
24.9     6284
24.92    6337
24.94    6549
24.96    6634
24.98    6788
25.0     6898
25.02    7063
25.04    7157
25.06    7317
25.08    7456
25.1     7546
25.12    7726
25.14    7805
25.16    7956
25.18    8139
25.2     8248
25.22    8333
25.24    8436
25.26    8622
25.28    8674
25.3     8835
25.32    8957
25.34    9134
25.36    9302
25.38    9446
25.4     9457
25.42    9631
25.44    9792
25.46    9879
25.48    10000
25.5     10088
25.52    10157
25.54    10254
25.56    10459
25.58    10525
25.6     10691
25.62    10833
25.64    10875
25.66    10898
25.68    10956
25.7     10995
25.72    11102
25.74    11188
25.76    11387
25.78    11266
25.8     11305
25.82    11413
25.84    11515
25.86    11512
25.88    11628
25.9     11664
25.92    11757
25.94    11708
25.96    11628
25.98    11658
26.0     11708
26.02    11712
26.04    11761
26.06    11746
26.08    11684
26.1     11664
26.12    11662
26.14    11604
26.16    11449
26.18    11407
26.2     11404
26.22    11371
26.24    11324
26.26    11216
26.28    11303
26.3     11256
26.32    11085
26.34    10998
26.36    10892
26.38    10699
26.4     10739
26.42    10638
26.44    10479
26.46    10380
26.48    10385
26.5     10247
26.52    10152
26.54    9894
26.56    9862
26.58    9740
26.6     9656
26.62    9530
26.64    9476
26.66    9347
26.68    9201
26.7     8924
26.72    8949
26.74    8804
26.76    8636
26.78    8465
26.8     8460
26.82    8322
26.84    8133
26.86    7928
26.88    7755
26.9     7707
26.92    7643
26.94    7526
26.96    7329
26.98    7209
27.0     7053
27.02    6934
27.04    6805
27.06    6620
27.08    6562
27.1     6344
27.12    6338
27.14    6151
27.16    6086
27.18    5991
27.2     5844
27.22    5716
27.24    5676
27.26    5498
27.28    5409
27.3     5282
27.32    5203
27.34    5161
27.36    5118
27.38    4941
27.4     4837
27.42    4775
27.44    4749
27.46    4744
27.48    4572
27.5     4502
27.52    4512
27.54    4392
27.56    4297
27.58    4221
27.6     4185
27.62    4086
27.64    4064
27.66    4110
27.68    4003
27.7     3964
27.72    3912
27.74    3901
27.76    3841
27.78    3724
27.8     3651
27.82    3678
27.84    3656
27.86    3663
27.88    3620
27.9     3616
27.92    3601
27.94    3638
27.96    3545
27.98    3551
28.0     3566
28.02    3589
28.04    3548
28.06    3586
28.08    3542
28.1     3483
28.12    3593
28.14    3617
28.16    3587
28.18    3579
28.2     3653
28.22    3657
28.24    3619
28.26    3662
28.28    3588
28.3     3602
28.32    3678
28.34    3686
28.36    3717
28.38    3822
28.4     3727
28.42    3827
28.44    3868
28.46    3858
28.48    3975
28.5     3985
28.52    3967
28.54    4002
28.56    4158
28.58    4211
28.6     4278
28.62    4173
28.64    4207
28.66    4299
28.68    4387
28.7     4476
28.72    4562
28.74    4585
28.76    4561
28.78    4543
28.8     4604
28.82    4620
28.84    4716
28.86    4747
28.88    4848
28.9     4911
28.92    4886
28.94    5024
28.96    5065
28.98    5145
29.0     5212
29.02    5130
29.04    5186
29.06    5271
29.08    5379
29.1     5401
29.12    5508
29.14    5540
29.16    5700
29.18    5690
29.2     5749
29.22    5876
29.24    5982
29.26    6057
29.28    6018
29.3     6167
29.32    6232
29.34    6224
29.36    6272
29.38    6383
29.4     6529
29.42    6554
29.44    6551
29.46    6544
29.48    6645
29.5     6836
29.52    6948
29.54    6885
29.56    6959
29.58    6913
29.6     6982
29.62    6949
29.64    7136
29.66    7129
29.68    7203
29.7     7119
29.72    7298
29.74    7285
29.76    7288
29.78    7278
29.8     7312
29.82    7323
29.84    7291
29.86    7364
29.88    7280
29.9     7445
29.92    7486
29.94    7417
29.96    7484
29.98    7414
30.0     7427
30.02    7469
30.04    7491
30.06    7462
30.08    7476
30.1     7445
30.12    7425
30.14    7508
30.16    7317
30.18    7361
30.2     7366
30.22    7289
30.24    7320
30.26    7373
30.28    7294
30.3     7226
30.32    7081
30.34    7011
30.36    6966
30.38    7011
30.4     6988
30.42    6874
30.44    6876
30.46    6797
30.48    6770
30.5     6681
30.52    6624
30.54    6663
30.56    6585
30.58    6438
30.6     6401
30.62    6169
30.64    6259
30.66    6212
30.68    6047
30.7     6007
30.72    5882
30.74    5791
30.76    5805
30.78    5667
30.8     5678
30.82    5617
30.84    5488
30.86    5389
30.88    5359
30.9     5307
30.92    5142
30.94    5065
30.96    5051
30.98    4943
31.0     4841
31.02    4835
31.04    4692
31.06    4710
31.08    4672
31.1     4502
31.12    4479
31.14    4470
31.16    4536
31.18    4352
31.2     4261
31.22    4113
31.24    4156
31.26    4032
31.28    3933
31.3     3896
31.32    3886
31.34    3748
31.36    3712
31.38    3756
31.4     3624
31.42    3743
31.44    3580
31.46    3527
31.48    3458
31.5     3437
31.52    3387
31.54    3308
31.56    3177
31.58    3094
31.6     3057
31.62    3115
31.64    3092
31.66    3001
31.68    3070
31.7     3018
31.72    2942
31.74    2888
31.76    2921
31.78    2862
31.8     2802
31.82    2880
31.84    2833
31.86    2832
31.88    2796
31.9     2724
31.92    2659
31.94    2701
31.96    2701
31.98    2698
32.0     2631
32.02    2656
32.04    2641
32.06    2630
32.08    2649
32.1     2581
32.12    2569
32.14    2518
32.16    2507
32.18    2538
32.2     2524
32.22    2575
32.24    2534
32.26    2555
32.28    2534
32.3     2509
32.32    2505
32.34    2446
32.36    2469
32.38    2448
32.4     2404
32.42    2462
32.44    2440
32.46    2424
32.48    2490
32.5     2430
32.52    2424
32.54    2376
32.56    2361
32.58    2439
32.6     2420
32.62    2371
32.64    2399
32.66    2393
32.68    2377
32.7     2411
32.72    2391
32.74    2378
32.76    2361
32.78    2467
32.8     2406
32.82    2331
32.84    2406
32.86    2393
32.88    2440
32.9     2374
32.92    2418
32.94    2323
32.96    2380
32.98    2336
33.0     2339
33.02    2358
33.04    2300
33.06    2342
33.08    2310
33.1     2231
33.12    2276
33.14    2338
33.16    2305
33.18    2273
33.2     2365
33.22    2311
33.24    2252
33.26    2246
33.28    2239
33.3     2236
33.32    2276
33.34    2290
33.36    2289
33.38    2251
33.4     2260
33.42    2267
33.44    2274
33.46    2245
33.48    2274
33.5     2195
33.52    2262
33.54    2239
33.56    2304
33.58    2194
33.6     2157
33.62    2226
33.64    2335
33.66    2174
33.68    2235
33.7     2262
33.72    2171
33.74    2217
33.76    2186
33.78    2168
33.8     2190
33.82    2182
33.84    2206
33.86    2194
33.88    2181
33.9     2171
33.92    2120
33.94    2197
33.96    2193
33.98    2095
34.0     2098
34.02    2195
34.04    2198
34.06    2162
34.08    2135
34.1     2113
34.12    2124
34.14    2113
34.16    2191
34.18    2188
34.2     2161
34.22    2119
34.24    2211
34.26    2169
34.28    2142
34.3     2125
34.32    2160
34.34    2213
34.36    2174
34.38    2137
34.4     2092
34.42    2183
34.44    2120
34.46    2126
34.48    2125
34.5     2087
34.52    2121
34.54    2101
34.56    2124
34.58    2100
34.6     2211
34.62    2162
34.64    2087
34.66    2131
34.68    2090
34.7     2069
34.72    2065
34.74    2192
34.76    2132
34.78    2180
34.8     2067
34.82    2036
34.84    2134
34.86    2134
34.88    2072
34.9     2064
34.92    2114
34.94    2162
34.96    2059
34.98    2056
35.0     2124
35.02    2083
35.04    2060
35.06    2051
35.08    2030
35.1     2140
35.12    2162
35.14    2170
35.16    2044
35.18    2106
35.2     2098
35.22    2094
35.24    2056
35.26    2088
35.28    2061
35.3     2036
35.32    2125
35.34    2058
35.36    2059
35.38    1940
35.4     2083
35.42    2032
35.44    2107
35.46    2047
35.48    2106
35.5     2124
35.52    2074
35.54    2100
35.56    2088
35.58    2052
35.6     2070
35.62    2061
35.64    2052
35.66    2071
35.68    2077
35.7     2099
35.72    2030
35.74    2046
35.76    2005
35.78    1960
35.8     2014
35.82    1973
35.84    2033
35.86    2032
35.88    2035
35.9     2068
35.92    2065
35.94    2087
35.96    2139
35.98    2037
36.0     1998
36.02    2086
36.04    1968
36.06    2086
36.08    2073
36.1     2090
36.12    2119
36.14    2042
36.16    2059
36.18    2141
36.2     2034
36.22    2028
36.24    2075
36.26    2070
36.28    2089
36.3     2005
36.32    2037
36.34    2158
36.36    2022
36.38    2001
36.4     2029
36.42    2025
36.44    2048
36.46    2076
36.48    2125
36.5     1995
36.52    2046
36.54    2041
36.56    2079
36.58    2044
36.6     2089
36.62    2081
36.64    2099
36.66    2032
36.68    2030
36.7     2076
36.72    2018
36.74    1953
36.76    2071
36.78    2062
36.8     2047
36.82    2085
36.84    2130
36.86    2020
36.88    2034
36.9     1991
36.92    2061
36.94    2075
36.96    1999
36.98    2076
37.0     2099
37.02    2091
37.04    2076
37.06    2092
37.08    2055
37.1     2065
37.12    2009
37.14    2075
37.16    2073
37.18    2121
37.2     2109
37.22    2109
37.24    2096
37.26    2012
37.28    2060
37.3     2092
37.32    2088
37.34    2093
37.36    2146
37.38    2156
37.4     2037
37.42    2069
37.44    2067
37.46    2143
37.48    2081
37.5     2088
37.52    2046
37.54    2163
37.56    2090
37.58    2049
37.6     2169
37.62    2211
37.64    2207
37.66    2118
37.68    2150
37.7     2144
37.72    2143
37.74    2137
37.76    2134
37.78    2141
37.8     2185
37.82    2190
37.84    2132
37.86    2158
37.88    2162
37.9     2139
37.92    2134
37.94    2167
37.96    2164
37.98    2197
38.0     2161
38.02    2167
38.04    2277
38.06    2294
38.08    2205
38.1     2154
38.12    2258
38.14    2171
38.16    2236
38.18    2215
38.2     2250
38.22    2179
38.24    2234
38.26    2200
38.28    2213
38.3     2184
38.32    2268
38.34    2230
38.36    2202
38.38    2289
38.4     2298
38.42    2228
38.44    2274
38.46    2233
38.48    2307
38.5     2293
38.52    2237
38.54    2234
38.56    2278
38.58    2287
38.6     2327
38.62    2296
38.64    2302
38.66    2339
38.68    2252
38.7     2226
38.72    2277
38.74    2267
38.76    2216
38.78    2202
38.8     2213
38.82    2285
38.84    2291
38.86    2261
38.88    2241
38.9     2292
38.92    2342
38.94    2304
38.96    2315
38.98    2320
39.0     2315
39.02    2316
39.04    2314
39.06    2347
39.08    2363
39.1     2310
39.12    2291
39.14    2348
39.16    2409
39.18    2342
39.2     2322
39.22    2335
39.24    2400
39.26    2379
39.28    2395
39.3     2373
39.32    2422
39.34    2402
39.36    2351
39.38    2479
39.4     2482
39.42    2376
39.44    2504
39.46    2470
39.48    2493
39.5     2421
39.52    2507
39.54    2498
39.56    2515
39.58    2504
39.6     2492
39.62    2523
39.64    2548
39.66    2562
39.68    2578
39.7     2619
39.72    2618
39.74    2605
39.76    2578
39.78    2579
39.8     2542
39.82    2624
39.84    2630
39.86    2678
39.88    2584
39.9     2551
39.92    2628
39.94    2647
39.96    2632
39.98    2657
40.0     2652
40.02    2688
40.04    2722
40.06    2668
40.08    2735
40.1     2738
40.12    2707
40.14    2746
40.16    2754
40.18    2746
40.2     2737
40.22    2726
40.24    2695
40.26    2701
40.28    2712
40.3     2807
40.32    2902
40.34    2820
40.36    2846
40.38    2750
40.4     2728
40.42    2814
40.44    2805
40.46    2876
40.48    2883
40.5     2890
40.52    2842
40.54    2869
40.56    2943
40.58    2845
40.6     2986
40.62    2944
40.64    2943
40.66    2998
40.68    2969
40.7     3013
40.72    3041
40.74    3038
40.76    3151
40.78    3152
40.8     3189
40.82    3192
40.84    3277
40.86    3197
40.88    3170
40.9     3318
40.92    3394
40.94    3411
40.96    3460
40.98    3520
41.0     3573
41.02    3722
41.04    3747
41.06    3753
41.08    3859
41.1     3959
41.12    4046
41.14    4077
41.16    4119
41.18    4076
41.2     4247
41.22    4366
41.24    4481
41.26    4561
41.28    4828
41.3     4808
41.32    4969
41.34    5015
41.36    5184
41.38    5183
41.4     5430
41.42    5555
41.44    5677
41.46    5847
41.48    5947
41.5     6037
41.52    6239
41.54    6379
41.56    6477
41.58    6770
41.6     7028
41.62    7176
41.64    7429
41.66    7310
41.68    7468
41.7     7847
41.72    7962
41.74    8223
41.76    8373
41.78    8552
41.8     8801
41.82    8963
41.84    9135
41.86    9409
41.88    9575
41.9     9899
41.92    10110
41.94    10272
41.96    10434
41.98    10784
42.0     10912
42.02    11239
42.04    11492
42.06    11570
42.08    11606
42.1     12167
42.12    12387
42.14    12721
42.16    12772
42.18    12966
42.2     13189
42.22    13549
42.24    13665
42.26    13918
42.28    14120
42.3     14227
42.32    14772
42.34    14887
42.36    15028
42.38    15339
42.4     15504
42.42    15623
42.44    15705
42.46    16057
42.48    16251
42.5     16328
42.52    16631
42.54    17019
42.56    17029
42.58    17061
42.6     17314
42.62    17438
42.64    17436
42.66    17884
42.68    17828
42.7     18157
42.72    18115
42.74    18186
42.76    18310
42.78    18674
42.8     18713
42.82    18502
42.84    18786
42.86    18934
42.88    18897
42.9     18975
42.92    18816
42.94    18932
42.96    19204
42.98    18932
43.0     19063
43.02    18911
43.04    19099
43.06    19263
43.08    19378
43.1     19194
43.12    18873
43.14    19069
43.16    19163
43.18    19092
43.2     19035
43.22    18966
43.24    18735
43.26    18705
43.28    18761
43.3     18689
43.32    18587
43.34    18425
43.36    18071
43.38    17913
43.4     17999
43.42    17744
43.44    17703
43.46    17753
43.48    17561
43.5     17408
43.52    17095
43.54    16935
43.56    16823
43.58    16609
43.6     16454
43.62    16339
43.64    16134
43.66    15764
43.68    15631
43.7     15474
43.72    15352
43.74    14959
43.76    14710
43.78    14545
43.8     14652
43.82    14295
43.84    14080
43.86    13760
43.88    13440
43.9     13153
43.92    12909
43.94    12851
43.96    12814
43.98    12338
44.0     12230
44.02    11918
44.04    11748
44.06    11429
44.08    11165
44.1     11014
44.12    10886
44.14    10467
44.16    10432
44.18    10217
44.2     9937
44.22    9644
44.24    9591
44.26    9309
44.28    9106
44.3     8784
44.32    8663
44.34    8561
44.36    8368
44.38    8182
44.4     8061
44.42    7728
44.44    7501
44.46    7284
44.48    7381
44.5     7119
44.52    6869
44.54    6661
44.56    6477
44.58    6311
44.6     6283
44.62    6030
44.64    5858
44.66    5850
44.68    5563
44.7     5539
44.72    5384
44.74    5360
44.76    5152
44.78    5112
44.8     4953
44.82    4866
44.84    4731
44.86    4754
44.88    4635
44.9     4500
44.92    4289
44.94    4282
44.96    4113
44.98    4106
45.0     3936
45.02    3852
45.04    3806
45.06    3846
45.08    3724
45.1     3642
45.12    3640
45.14    3512
45.16    3440
45.18    3457
45.2     3399
45.22    3342
45.24    3391
45.26    3279
45.28    3335
45.3     3274
45.32    3142
45.34    3156
45.36    3155
45.38    3151
45.4     3068
45.42    3116
45.44    2993
45.46    3044
45.48    3088
45.5     2966
45.52    3052
45.54    3001
45.56    2983
45.58    2910
45.6     2918
45.62    2870
45.64    2864
45.66    2868
45.68    2874
45.7     2890
45.72    2821
45.74    2795
45.76    2714
45.78    2789
45.8     2806
45.82    2829
45.84    2737
45.86    2739
45.88    2834
45.9     2763
45.92    2803
45.94    2740
45.96    2668
45.98    2738
46.0     2699
46.02    2748
46.04    2761
46.06    2813
46.08    2654
46.1     2660
46.12    2681
46.14    2675
46.16    2729
46.18    2731
46.2     2635
46.22    2707
46.24    2667
46.26    2614
46.28    2646
46.3     2637
46.32    2708
46.34    2626
46.36    2705
46.38    2617
46.4     2723
46.42    2659
46.44    2616
46.46    2615
46.48    2618
46.5     2564
46.52    2525
46.54    2615
46.56    2511
46.58    2577
46.6     2617
46.62    2587
46.64    2527
46.66    2463
46.68    2530
46.7     2571
46.72    2496
46.74    2469
46.76    2476
46.78    2464
46.8     2455
46.82    2505
46.84    2516
46.86    2461
46.88    2437
46.9     2491
46.92    2466
46.94    2513
46.96    2419
46.98    2461
47.0     2388
47.02    2384
47.04    2416
47.06    2392
47.08    2430
47.1     2395
47.12    2420
47.14    2313
47.16    2409
47.18    2421
47.2     2379
47.22    2334
47.24    2371
47.26    2415
47.28    2406
47.3     2325
47.32    2307
47.34    2390
47.36    2352
47.38    2346
47.4     2370
47.42    2400
47.44    2335
47.46    2341
47.48    2387
47.5     2315
47.52    2384
47.54    2460
47.56    2368
47.58    2363
47.6     2400
47.62    2331
47.64    2433
47.66    2391
47.68    2402
47.7     2340
47.72    2383
47.74    2356
47.76    2371
47.78    2430
47.8     2363
47.82    2402
47.84    2306
47.86    2442
47.88    2410
47.9     2452
47.92    2405
47.94    2378
47.96    2488
47.98    2420
48.0     2375
48.02    2293
48.04    2347
48.06    2287
48.08    2403
48.1     2344
48.12    2379
48.14    2418
48.16    2340
48.18    2335
48.2     2341
48.22    2377
48.24    2336
48.26    2290
48.28    2393
48.3     2374
48.32    2337
48.34    2374
48.36    2331
48.38    2360
48.4     2355
48.42    2380
48.44    2321
48.46    2345
48.48    2370
48.5     2365
48.52    2372
48.54    2377
48.56    2410
48.58    2372
48.6     2315
48.62    2380
48.64    2402
48.66    2424
48.68    2412
48.7     2356
48.72    2343
48.74    2433
48.76    2414
48.78    2341
48.8     2430
48.82    2416
48.84    2349
48.86    2352
48.88    2398
48.9     2425
48.92    2440
48.94    2432
48.96    2383
48.98    2490
49.0     2462
49.02    2348
49.04    2474
49.06    2508
49.08    2585
49.1     2517
49.12    2639
49.14    2543
49.16    2633
49.18    2605
49.2     2581
49.22    2560
49.24    2615
49.26    2662
49.28    2653
49.3     2679
49.32    2649
49.34    2813
49.36    2816
49.38    2784
49.4     2760
49.42    2836
49.44    2810
49.46    2891
49.48    2989
49.5     3059
49.52    2973
49.54    3048
49.56    3038
49.58    3061
49.6     3070
49.62    3149
49.64    3210
49.66    3113
49.68    3277
49.7     3323
49.72    3322
49.74    3349
49.76    3415
49.78    3481
49.8     3449
49.82    3604
49.84    3566
49.86    3569
49.88    3708
49.9     3659
49.92    3708
49.94    3806
49.96    3720
49.98    3926
50.0     3924
50.02    3879
50.04    3938
50.06    4040
50.08    4007
50.1     4065
50.12    4155
50.14    4130
50.16    4175
50.18    4216
50.2     4344
50.22    4381
50.24    4446
50.26    4428
50.28    4413
50.3     4532
50.32    4473
50.34    4438
50.36    4541
50.38    4610
50.4     4574
50.42    4603
50.44    4745
50.46    4849
50.48    4845
50.5     4765
50.52    4739
50.54    4721
50.56    4957
50.58    4755
50.6     4817
50.62    4837
50.64    4914
50.66    4921
50.68    4816
50.7     4999
50.72    4917
50.74    5088
50.76    5106
50.78    5067
50.8     4968
50.82    5120
50.84    5094
50.86    5074
50.88    5038
50.9     5021
50.92    5000
50.94    4989
50.96    5052
50.98    4999
51.0     5057
51.02    4959
51.04    5023
51.06    5050
51.08    4971
51.1     5126
51.12    4997
51.14    4909
51.16    4899
51.18    4905
51.2     4875
51.22    4943
51.24    4902
51.26    4825
51.28    4838
51.3     4809
51.32    4814
51.34    4908
51.36    4843
51.38    4725
51.4     4655
51.42    4699
51.44    4735
51.46    4681
51.48    4645
51.5     4647
51.52    4673
51.54    4518
51.56    4613
51.58    4544
51.6     4552
51.62    4343
51.64    4441
51.66    4496
51.68    4519
51.7     4352
51.72    4327
51.74    4348
51.76    4299
51.78    4275
51.8     4382
51.82    4264
51.84    4157
51.86    4151
51.88    4187
51.9     4077
51.92    4039
51.94    4137
51.96    4171
51.98    3996
52.0     3953
52.02    3899
52.04    4024
52.06    4008
52.08    3998
52.1     3985
52.12    3946
52.14    3966
52.16    3923
52.18    3935
52.2     3816
52.22    3807
52.24    3885
52.26    3851
52.28    3985
52.3     3847
52.32    3747
52.34    3869
52.36    3798
52.38    3800
52.4     3753
52.42    3801
52.44    3809
52.46    3811
52.48    3754
52.5     3703
52.52    3790
52.54    3753
52.56    3873
52.58    3777
52.6     3895
52.62    3802
52.64    3922
52.66    3861
52.68    3770
52.7     3827
52.72    3838
52.74    3745
52.76    3727
52.78    3817
52.8     3808
52.82    3779
52.84    3849
52.86    3795
52.88    3872
52.9     3846
52.92    3823
52.94    3918
52.96    3942
52.98    3937
53.0     4015
53.02    3964
53.04    3997
53.06    3959
53.08    3928
53.1     3957
53.12    3879
53.14    4061
53.16    4053
53.18    3994
53.2     4003
53.22    3952
53.24    3959
53.26    4003
53.28    3985
53.3     3955
53.32    4026
53.34    3971
53.36    3910
53.38    3981
53.4     4100
53.42    4040
53.44    4013
53.46    3983
53.48    3904
53.5     3949
53.52    3926
53.54    3985
53.56    3992
53.58    3868
53.6     3986
53.62    3921
53.64    3821
53.66    3972
53.68    3901
53.7     3908
53.72    3870
53.74    3787
53.76    3849
53.78    3821
53.8     3824
53.82    3744
53.84    3749
53.86    3638
53.88    3671
53.9     3667
53.92    3674
53.94    3758
53.96    3664
53.98    3567
54.0     3509
54.02    3569
54.04    3479
54.06    3518
54.08    3561
54.1     3438
54.12    3490
54.14    3446
54.16    3405
54.18    3443
54.2     3393
54.22    3293
54.24    3318
54.26    3144
54.28    3310
54.3     3177
54.32    3159
54.34    3148
54.36    3020
54.38    3001
54.4     3037
54.42    3062
54.44    2946
54.46    2939
54.48    2977
54.5     2924
54.52    2862
54.54    2880
54.56    2805
54.58    2816
54.6     2846
54.62    2834
54.64    2726
54.66    2741
54.68    2633
54.7     2665
54.72    2565
54.74    2568
54.76    2614
54.78    2638
54.8     2581
54.82    2491
54.84    2475
54.86    2455
54.88    2510
54.9     2529
54.92    2517
54.94    2417
54.96    2428
54.98    2364
55.0     2305
55.02    2309
55.04    2350
55.06    2252
55.08    2195
55.1     2237
55.12    2300
55.14    2193
55.16    2180
55.18    2127
55.2     2134
55.22    2171
55.24    2192
55.26    2138
55.28    2147
55.3     2135
55.32    2098
55.34    2103
55.36    2005
55.38    2090
55.4     2008
55.42    2037
55.44    2017
55.46    2042
55.48    1976
55.5     2100
55.52    2020
55.54    1981
55.56    2049
55.58    1989
55.6     1937
55.62    1970
55.64    1993
55.66    1956
55.68    1972
55.7     1956
55.72    1987
55.74    1924
55.76    1947
55.78    1940
55.8     1960
55.82    1931
55.84    1904
55.86    1915
55.88    1941
55.9     1923
55.92    1839
55.94    1906
55.96    1882
55.98    1830
56.0     1869
56.02    1928
56.04    1942
56.06    1882
56.08    1917
56.1     1855
56.12    1842
56.14    1911
56.16    1921
56.18    1921
56.2     1894
56.22    1848
56.24    1870
56.26    1883
56.28    1883
56.3     1930
56.32    1882
56.34    1837
56.36    1898
56.38    1939
56.4     1907
56.42    1921
56.44    1882
56.46    1931
56.48    1898
56.5     1889
56.52    1894
56.54    1904
56.56    1896
56.58    1845
56.6     1919
56.62    1833
56.64    1849
56.66    1878
56.68    1950
56.7     1870
56.72    1828
56.74    1874
56.76    1893
56.78    1904
56.8     1823
56.82    1904
56.84    1902
56.86    1907
56.88    1877
56.9     1885
56.92    1831
56.94    1828
56.96    1862
56.98    1855
57.0     1855
57.02    1850
57.04    1828
57.06    1780
57.08    1798
57.1     1759
57.12    1745
57.14    1818
57.16    1794
57.18    1826
57.2     1875
57.22    1895
57.24    1859
57.26    1856
57.28    1798
57.3     1841
57.32    1817
57.34    1798
57.36    1846
57.38    1774
57.4     1844
57.42    1812
57.44    1819
57.46    1816
57.48    1781
57.5     1822
57.52    1772
57.54    1763
57.56    1737
57.58    1771
57.6     1795
57.62    1842
57.64    1875
57.66    1872
57.68    1821
57.7     1848
57.72    1792
57.74    1829
57.76    1818
57.78    1798
57.8     1785
57.82    1803
57.84    1806
57.86    1762
57.88    1790
57.9     1775
57.92    1829
57.94    1798
57.96    1877
57.98    1772
58.0     1772
58.02    1777
58.04    1785
58.06    1772
58.08    1835
58.1     1812
58.12    1793
58.14    1801
58.16    1803
58.18    1855
58.2     1805
58.22    1760
58.24    1736
58.26    1767
58.28    1787
58.3     1780
58.32    1739
58.34    1759
58.36    1805
58.38    1795
58.4     1766
58.42    1766
58.44    1810
58.46    1859
58.48    1789
58.5     1797
58.52    1745
58.54    1702
58.56    1792
58.58    1710
58.6     1763
58.62    1753
58.64    1762
58.66    1762
58.68    1748
58.7     1764
58.72    1793
58.74    1751
58.76    1761
58.78    1827
58.8     1754
58.82    1743
58.84    1783
58.86    1791
58.88    1791
58.9     1756
58.92    1782
58.94    1751
58.96    1763
58.98    1775
59.0     1770
59.02    1713
59.04    1828
59.06    1818
59.08    1705
59.1     1752
59.12    1806
59.14    1765
59.16    1710
59.18    1806
59.2     1757
59.22    1717
59.24    1777
59.26    1804
59.28    1763
59.3     1738
59.32    1799
59.34    1843
59.36    1775
59.38    1708
59.4     1750
59.42    1749
59.44    1778
59.46    1736
59.48    1743
59.5     1691
59.52    1676
59.54    1703
59.56    1738
59.58    1713
59.6     1743
59.62    1739
59.64    1744
59.66    1733
59.68    1779
59.7     1769
59.72    1776
59.74    1738
59.76    1773
59.78    1758
59.8     1715
59.82    1747
59.84    1744
59.86    1779
59.88    1789
59.9     1741
59.92    1693
59.94    1751
59.96    1760
59.98    1752
60.0     1697
60.02    1650
60.04    1706
60.06    1681
60.08    1766
60.1     1731
60.12    1739
60.14    1782
60.16    1721
60.18    1712
60.2     1702
60.22    1739
60.24    1733
60.26    1761
60.28    1712
60.3     1783
60.32    1782
60.34    1788
60.36    1718
60.38    1759
60.4     1754
60.42    1690
60.44    1766
60.46    1714
60.48    1726
60.5     1701
60.52    1728
60.54    1770
60.56    1829
60.58    1778
60.6     1786
60.62    1744
60.64    1764
60.66    1765
60.68    1739
60.7     1724
60.72    1779
60.74    1754
60.76    1742
60.78    1720
60.8     1761
60.82    1784
60.84    1756
60.86    1788
60.88    1748
60.9     1815
60.92    1785
60.94    1747
60.96    1802
60.98    1803
61.0     1792
61.02    1789
61.04    1787
61.06    1790
61.08    1776
61.1     1825
61.12    1816
61.14    1768
61.16    1787
61.18    1845
61.2     1829
61.22    1874
61.24    1889
61.26    1853
61.28    1861
61.3     1781
61.32    1831
61.34    1766
61.36    1780
61.38    1792
61.4     1837
61.42    1803
61.44    1864
61.46    1852
61.48    1905
61.5     1895
61.52    1826
61.54    1878
61.56    1871
61.58    1893
61.6     1893
61.62    1921
61.64    1903
61.66    1889
61.68    1917
61.7     1925
61.72    1869
61.74    1861
61.76    1858
61.78    1945
61.8     1911
61.82    1956
61.84    2027
61.86    1973
61.88    1941
61.9     1946
61.92    1998
61.94    1973
61.96    1987
61.98    1983
62.0     1922
62.02    1974
62.04    1964
62.06    1971
62.08    2015
62.1     2005
62.12    1979
62.14    1974
62.16    2004
62.18    2008
62.2     2001
62.22    2036
62.24    2052
62.26    1973
62.28    1975
62.3     1967
62.32    1989
62.34    1993
62.36    2019
62.38    2047
62.4     1967
62.42    2013
62.44    1967
62.46    1956
62.48    1973
62.5     1994
62.52    2015
62.54    2006
62.56    1977
62.58    2062
62.6     2045
62.62    2018
62.64    2091
62.66    1993
62.68    1997
62.7     1970
62.72    1984
62.74    1992
62.76    1990
62.78    1993
62.8     1914
62.82    1993
62.84    1942
62.86    1944
62.88    2012
62.9     2032
62.92    1983
62.94    2028
62.96    2015
62.98    1969
63.0     1974
63.02    1970
63.04    1955
63.06    1971
63.08    1874
63.1     1898
63.12    1943
63.14    1909
63.16    1998
63.18    1965
63.2     1910
63.22    1872
63.24    1892
63.26    1894
63.28    1890
63.3     1854
63.32    1881
63.34    1908
63.36    1887
63.38    1936
63.4     1946
63.42    1946
63.44    1893
63.46    1911
63.48    1873
63.5     1852
63.52    1867
63.54    1860
63.56    1866
63.58    1809
63.6     1837
63.62    1841
63.64    1868
63.66    1831
63.68    1832
63.7     1804
63.72    1767
63.74    1828
63.76    1857
63.78    1849
63.8     1875
63.82    1779
63.84    1858
63.86    1804
63.88    1844
63.9     1771
63.92    1791
63.94    1775
63.96    1841
63.98    1789
64.0     1793
64.02    1792
64.04    1781
64.06    1801
64.08    1777
64.1     1737
64.12    1812
64.14    1803
64.16    1750
64.18    1722
64.2     1714
64.22    1739
64.24    1735
64.26    1680
64.28    1662
64.3     1790
64.32    1724
64.34    1692
64.36    1741
64.38    1721
64.4     1726
64.42    1688
64.44    1772
64.46    1797
64.48    1761
64.5     1712
64.52    1657
64.54    1701
64.56    1751
64.58    1699
64.6     1736
64.62    1696
64.64    1680
64.66    1722
64.68    1708
64.7     1718
64.72    1733
64.74    1740
64.76    1724
64.78    1719
64.8     1726
64.82    1714
64.84    1789
64.86    1725
64.88    1715
64.9     1708
64.92    1718
64.94    1736
64.96    1707
64.98    1760
65.0     1734
65.02    1765
65.04    1816
65.06    1769
65.08    1721
65.1     1757
65.12    1697
65.14    1708
65.16    1761
65.18    1790
65.2     1759
65.22    1719
65.24    1710
65.26    1707
65.28    1704
65.3     1688
65.32    1740
65.34    1728
65.36    1704
65.38    1724
65.4     1691
65.42    1749
65.44    1739
65.46    1741
65.48    1667
65.5     1749
65.52    1773
65.54    1771
65.56    1764
65.58    1783
65.6     1771
65.62    1784
65.64    1774
65.66    1770
65.68    1817
65.7     1782
65.72    1742
65.74    1815
65.76    1816
65.78    1791
65.8     1762
65.82    1785
65.84    1769
65.86    1792
65.88    1773
65.9     1753
65.92    1775
65.94    1773
65.96    1744
65.98    1796
66.0     1733
66.02    1743
66.04    1750
66.06    1750
66.08    1800
66.1     1754
66.12    1776
66.14    1718
66.16    1774
66.18    1759
66.2     1757
66.22    1759
66.24    1830
66.26    1818
66.28    1788
66.3     1769
66.32    1749
66.34    1738
66.36    1799
66.38    1780
66.4     1796
66.42    1863
66.44    1840
66.46    1839
66.48    1790
66.5     1853
66.52    1869
66.54    1812
66.56    1904
66.58    1881
66.6     1925
66.62    1873
66.64    1894
66.66    1914
66.68    1834
66.7     1875
66.72    1967
66.74    1906
66.76    1923
66.78    1917
66.8     1975
66.82    1911
66.84    1958
66.86    1972
66.88    1969
66.9     2013
66.92    2024
66.94    1977
66.96    2037
66.98    2023
67.0     2072
67.02    2066
67.04    2106
67.06    2108
67.08    2126
67.1     2107
67.12    2131
67.14    2137
67.16    2174
67.18    2217
67.2     2235
67.22    2258
67.24    2235
67.26    2208
67.28    2247
67.3     2277
67.32    2357
67.34    2356
67.36    2368
67.38    2377
67.4     2382
67.42    2475
67.44    2412
67.46    2412
67.48    2479
67.5     2519
67.52    2591
67.54    2601
67.56    2518
67.58    2486
67.6     2620
67.62    2661
67.64    2689
67.66    2679
67.68    2704
67.7     2743
67.72    2719
67.74    2725
67.76    2728
67.78    2671
67.8     2794
67.82    2854
67.84    2804
67.86    2785
67.88    2841
67.9     2872
67.92    2888
67.94    2913
67.96    3040
67.98    2972
68.0     3035
68.02    3009
68.04    2985
68.06    2974
68.08    3040
68.1     3082
68.12    3107
68.14    3116
68.16    3181
68.18    3171
68.2     3210
68.22    3172
68.24    3179
68.26    3270
68.28    3234
68.3     3267
68.32    3319
68.34    3352
68.36    3290
68.38    3307
68.4     3403
68.42    3436
68.44    3393
68.46    3381
68.48    3457
68.5     3449
68.52    3481
68.54    3458
68.56    3458
68.58    3471
68.6     3516
68.62    3563
68.64    3514
68.66    3548
68.68    3571
68.7     3547
68.72    3605
68.74    3641
68.76    3524
68.78    3498
68.8     3601
68.82    3637
68.84    3609
68.86    3593
68.88    3652
68.9     3722
68.92    3648
68.94    3589
68.96    3571
68.98    3549
69.0     3567
69.02    3680
69.04    3636
69.06    3681
69.08    3678
69.1     3633
69.12    3606
69.14    3681
69.16    3719
69.18    3668
69.2     3752
69.22    3670
69.24    3653
69.26    3749
69.28    3784
69.3     3706
69.32    3736
69.34    3759
69.36    3710
69.38    3768
69.4     3712
69.42    3742
69.44    3717
69.46    3723
69.48    3772
69.5     3777
69.52    3641
69.54    3656
69.56    3642
69.58    3711
69.6     3748
69.62    3756
69.64    3761
69.66    3747
69.68    3752
69.7     3770
69.72    3747
69.74    3669
69.76    3657
69.78    3649
69.8     3717
69.82    3725
69.84    3798
69.86    3726
69.88    3755
69.9     3773
69.92    3718
69.94    3765
69.96    3783
69.98    3780
70.0     3842
70.02    3838
70.04    3757
70.06    3791
70.08    3773
70.1     3788
70.12    3760
70.14    3800
70.16    3823
70.18    3866
70.2     3856
70.22    3775
70.24    3748
70.26    3713
70.28    3730
70.3     3704
70.32    3722
70.34    3732
70.36    3732
70.38    3711
70.4     3727
70.42    3807
70.44    3808
70.46    3862
70.48    3835
70.5     3790
70.52    3722
70.54    3803
70.56    3782
70.58    3808
70.6     3840
70.62    3792
70.64    3867
70.66    3853
70.68    3806
70.7     3807
70.72    3728
70.74    3755
70.76    3823
70.78    3803
70.8     3761
70.82    3810
70.84    3782
70.86    3695
70.88    3659
70.9     3779
70.92    3754
70.94    3668
70.96    3748
70.98    3700
71.0     3636
71.02    3670
71.04    3617
71.06    3666
71.08    3668
71.1     3618
71.12    3599
71.14    3536
71.16    3521
71.18    3543
71.2     3499
71.22    3500
71.24    3537
71.26    3481
71.28    3511
71.3     3518
71.32    3454
71.34    3361
71.36    3417
71.38    3381
71.4     3404
71.42    3377
71.44    3260
71.46    3267
71.48    3389
71.5     3312
71.52    3293
71.54    3221
71.56    3274
71.58    3280
71.6     3202
71.62    3143
71.64    3167
71.66    3184
71.68    3107
71.7     3056
71.72    3068
71.74    3053
71.76    3038
71.78    2995
71.8     2977
71.82    3026
71.84    2854
71.86    2907
71.88    2906
71.9     2925
71.92    2844
71.94    2856
71.96    2783
71.98    2823
72.0     2758
72.02    2754
72.04    2742
72.06    2757
72.08    2751
72.1     2720
72.12    2621
72.14    2587
72.16    2595
72.18    2606
72.2     2545
72.22    2559
72.24    2575
72.26    2510
72.28    2485
72.3     2466
72.32    2477
72.34    2424
72.36    2356
72.38    2342
72.4     2378
72.42    2373
72.44    2314
72.46    2312
72.48    2288
72.5     2260
72.52    2196
72.54    2204
72.56    2239
72.58    2204
72.6     2161
72.62    2140
72.64    2112
72.66    2161
72.68    2140
72.7     2062
72.72    2052
72.74    2011
72.76    1966
72.78    1963
72.8     1972
72.82    2039
72.84    2012
72.86    1943
72.88    1901
72.9     1887
72.92    1928
72.94    1965
72.96    1971
72.98    1910
73.0     1891
73.02    1813
73.04    1825
73.06    1851
73.08    1884
73.1     1797
73.12    1759
73.14    1822
73.16    1802
73.18    1783
73.2     1762
73.22    1783
73.24    1750
73.26    1766
73.28    1772
73.3     1728
73.32    1738
73.34    1736
73.36    1694
73.38    1705
73.4     1699
73.42    1697
73.44    1707
73.46    1715
73.48    1685
73.5     1692
73.52    1725
73.54    1702
73.56    1645
73.58    1662
73.6     1658
73.62    1687
73.64    1675
73.66    1628
73.68    1654
73.7     1668
73.72    1670
73.74    1687
73.76    1633
73.78    1601
73.8     1632
73.82    1646
73.84    1666
73.86    1632
73.88    1647
73.9     1609
73.92    1646
73.94    1600
73.96    1630
73.98    1650
74.0     1641
74.02    1640
74.04    1630
74.06    1647
74.08    1651
74.1     1602
74.12    1646
74.14    1622
74.16    1636
74.18    1633
74.2     1599
74.22    1597
74.24    1585
74.26    1596
74.28    1597
74.3     1592
74.32    1589
74.34    1578
74.36    1564
74.38    1594
74.4     1619
74.42    1629
74.44    1590
74.46    1593
74.48    1571
74.5     1574
74.52    1575
74.54    1560
74.56    1546
74.58    1587
74.6     1619
74.62    1628
74.64    1617
74.66    1556
74.68    1548
74.7     1588
74.72    1618
74.74    1585
74.76    1601
74.78    1593
74.8     1586
74.82    1584
74.84    1586
74.86    1548
74.88    1591
74.9     1611
74.92    1642
74.94    1625
74.96    1583
74.98    1575
75.0     1562
75.02    1594
75.04    1621
75.06    1590
75.08    1555
75.1     1610
75.12    1601
75.14    1649
75.16    1590
75.18    1547
75.2     1532
75.22    1581
75.24    1541
75.26    1547
75.28    1550
75.3     1557
75.32    1529
75.34    1506
75.36    1543
75.38    1577
75.4     1514
75.42    1528
75.44    1546
75.46    1585
75.48    1559
75.5     1492
75.52    1509
75.54    1528
75.56    1538
75.58    1524
75.6     1491
75.62    1514
75.64    1557
75.66    1550
75.68    1572
75.7     1539
75.72    1566
75.74    1563
75.76    1503
75.78    1547
75.8     1523
75.82    1498
75.84    1517
75.86    1559
75.88    1536
75.9     1491
75.92    1550
75.94    1547
75.96    1591
75.98    1599
76.0     1509
76.02    1484
76.04    1510
76.06    1562
76.08    1544
76.1     1534
76.12    1530
76.14    1540
76.16    1517
76.18    1522
76.2     1516
76.22    1523
76.24    1537
76.26    1551
76.28    1505
76.3     1526
76.32    1540
76.34    1530
76.36    1524
76.38    1521
76.4     1509
76.42    1518
76.44    1468
76.46    1507
76.48    1548
76.5     1555
76.52    1536
76.54    1518
76.56    1529
76.58    1534
76.6     1528
76.62    1580
76.64    1589
76.66    1542
76.68    1561
76.7     1511
76.72    1552
76.74    1603
76.76    1529
76.78    1522
76.8     1565
76.82    1547
76.84    1576
76.86    1564
76.88    1553
76.9     1577
76.92    1569
76.94    1588
76.96    1571
76.98    1638
77.0     1585
77.02    1591
77.04    1644
77.06    1669
77.08    1651
77.1     1645
77.12    1637
77.14    1668
77.16    1680
77.18    1675
77.2     1669
77.22    1669
77.24    1724
77.26    1719
77.28    1730
77.3     1739
77.32    1734
77.34    1707
77.36    1706
77.38    1721
77.4     1693
77.42    1720
77.44    1775
77.46    1743
77.48    1785
77.5     1783
77.52    1859
77.54    1806
77.56    1848
77.58    1831
77.6     1871
77.62    1845
77.64    1813
77.66    1843
77.68    1847
77.7     1873
77.72    1895
77.74    1947
77.76    1906
77.78    1900
77.8     1928
77.82    1966
77.84    1956
77.86    1968
77.88    1972
77.9     1904
77.92    1886
77.94    1942
77.96    1963
77.98    2000
78.0     2011
78.02    2032
78.04    2047
78.06    2060
78.08    2093
78.1     2136
78.12    2077
78.14    2033
78.16    2095
78.18    2130
78.2     2133
78.22    2058
78.24    2091
78.26    2092
78.28    2073
78.3     2194
78.32    2231
78.34    2230
78.36    2206
78.38    2196
78.4     2174
78.42    2168
78.44    2211
78.46    2196
78.48    2186
78.5     2235
78.52    2253
78.54    2260
78.56    2211
78.58    2228
78.6     2217
78.62    2238
78.64    2244
78.66    2235
78.68    2224
78.7     2257
78.72    2228
78.74    2256
78.76    2262
78.78    2256
78.8     2249
78.82    2269
78.84    2288
78.86    2245
78.88    2244
78.9     2213
78.92    2238
78.94    2232
78.96    2222
78.98    2253
79.0     2228
79.02    2208
79.04    2222
79.06    2233
79.08    2216
79.1     2230
79.12    2217
79.14    2285
79.16    2251
79.18    2171
79.2     2226
79.22    2209
79.24    2221
79.26    2232
79.28    2177
79.3     2178
79.32    2123
79.34    2153
79.36    2148
79.38    2152
79.4     2135
79.42    2147
79.44    2099
79.46    2073
79.48    2083
79.5     2130
79.52    2017
79.54    2033
79.56    2090
79.58    2045
79.6     2104
79.62    2084
79.64    2070
79.66    2062
79.68    2118
79.7     2018
79.72    1957
79.74    2050
79.76    1998
79.78    1948
79.8     1929
79.82    1962
79.84    1959
79.86    1923
79.88    1929
79.9     1933
79.92    1886
79.94    1842
79.96    1825
79.98    1801
80.0     1788
