#PBs_1690_5nm_3010201 - Default scan
20.0     8233
20.02    8299
20.04    8400
20.06    8384
20.08    8262
20.1     8269
20.12    8367
20.14    8414
20.16    8478
20.18    8391
20.2     8296
20.22    8299
20.24    8328
20.26    8284
20.28    8267
20.3     8184
20.32    8233
20.34    8173
20.36    8198
20.38    8210
20.4     8188
20.42    8150
20.44    8197
20.46    8208
20.48    8233
20.5     8198
20.52    8239
20.54    8214
20.56    8076
20.58    8144
20.6     8184
20.62    8160
20.64    8236
20.66    8169
20.68    8316
20.7     8329
20.72    8211
20.74    8236
20.76    8168
20.78    8202
20.8     8249
20.82    8212
20.84    8094
20.86    8139
20.88    8165
20.9     8301
20.92    8350
20.94    8351
20.96    8243
20.98    8340
21.0     8335
21.02    8180
21.04    8197
21.06    8253
21.08    8172
21.1     8192
21.12    8175
21.14    8262
21.16    8286
21.18    8217
21.2     8308
21.22    8323
21.24    8314
21.26    8377
21.28    8370
21.3     8322
21.32    8178
21.34    8129
21.36    8242
21.38    8274
21.4     8248
21.42    8202
21.44    8210
21.46    8140
21.48    8067
21.5     7972
21.52    8122
21.54    8150
21.56    8130
21.58    8048
21.6     8021
21.62    8174
21.64    8084
21.66    8087
21.68    8208
21.7     8069
21.72    8036
21.74    8021
21.76    8075
21.78    8082
21.8     8141
21.82    8120
21.84    8223
21.86    8179
21.88    8181
21.9     8094
21.92    8070
21.94    8071
21.96    8093
21.98    7977
22.0     8006
22.02    7841
22.04    7985
22.06    8219
22.08    8147
22.1     8027
22.12    7953
22.14    7977
22.16    8046
22.18    8096
22.2     8108
22.22    8035
22.24    8034
22.26    8167
22.28    8138
22.3     8038
22.32    8096
22.34    8228
22.36    8220
22.38    8238
22.4     8203
22.42    8219
22.44    8173
22.46    8251
22.48    8399
22.5     8507
22.52    8517
22.54    8395
22.56    8447
22.58    8442
22.6     8522
22.62    8569
22.64    8578
22.66    8684
22.68    8798
22.7     8806
22.72    8725
22.74    8945
22.76    9026
22.78    8938
22.8     8888
22.82    8915
22.84    9004
22.86    9121
22.88    9081
22.9     9198
22.92    9165
22.94    9058
22.96    9240
22.98    9292
23.0     9250
23.02    9323
23.04    9381
23.06    9394
23.08    9519
23.1     9498
23.12    9492
23.14    9522
23.16    9611
23.18    9708
23.2     9624
23.22    9641
23.24    9706
23.26    9694
23.28    9520
23.3     9794
23.32    9787
23.34    9778
23.36    9748
23.38    9731
23.4     9747
23.42    9792
23.44    9765
23.46    9688
23.48    9763
23.5     9730
23.52    9693
23.54    9859
23.56    9919
23.58    9902
23.6     9902
23.62    9719
23.64    9748
23.66    9746
23.68    9720
23.7     9789
23.72    9844
23.74    9904
23.76    10007
23.78    9907
23.8     9860
23.82    9847
23.84    9989
23.86    10057
23.88    9987
23.9     10052
23.92    10027
23.94    10048
23.96    10030
23.98    10118
24.0     10320
24.02    10487
24.04    10500
24.06    10547
24.08    10669
24.1     10836
24.12    11006
24.14    11085
24.16    11133
24.18    11297
24.2     11487
24.22    11472
24.24    11721
24.26    12053
24.28    12323
24.3     12604
24.32    12825
24.34    12884
24.36    13067
24.38    13380
24.4     13732
24.42    13849
24.44    14205
24.46    14624
24.48    14962
24.5     15434
24.52    15842
24.54    16029
24.56    16431
24.58    16855
24.6     17187
24.62    17543
24.64    18086
24.66    18705
24.68    19234
24.7     19672
24.72    20254
24.74    20760
24.76    21335
24.78    21918
24.8     22493
24.82    22836
24.84    23328
24.86    24130
24.88    24911
24.9     25267
24.92    25921
24.94    26633
24.96    27309
24.98    27935
25.0     28434
25.02    29012
25.04    29674
25.06    30147
25.08    30977
25.1     31736
25.12    32382
25.14    33125
25.16    33810
25.18    34312
25.2     35073
25.22    35769
25.24    36488
25.26    37301
25.28    37824
25.3     38260
25.32    39082
25.34    39810
25.36    40562
25.38    41309
25.4     41948
25.42    42363
25.44    42574
25.46    43286
25.48    44137
25.5     44603
25.52    44975
25.54    45577
25.56    46189
25.58    46528
25.6     46966
25.62    47555
25.64    47912
25.66    48421
25.68    48633
25.7     49136
25.72    49545
25.74    49704
25.76    50109
25.78    50212
25.8     50450
25.82    50681
25.84    50944
25.86    50857
25.88    51202
25.9     51434
25.92    51728
25.94    51562
25.96    51437
25.98    51611
26.0     51731
26.02    51337
26.04    51275
26.06    51474
26.08    51307
26.1     51064
26.12    51051
26.14    50825
26.16    50597
26.18    50084
26.2     49840
26.22    49550
26.24    49250
26.26    48842
26.28    48697
26.3     48221
26.32    47727
26.34    47481
26.36    47226
26.38    46586
26.4     46052
26.42    45671
26.44    45165
26.46    44688
26.48    44105
26.5     43405
26.52    42809
26.54    42191
26.56    41526
26.58    41108
26.6     40365
26.62    39547
26.64    39117
26.66    38466
26.68    38052
26.7     37506
26.72    36473
26.74    35624
26.76    35222
26.78    34747
26.8     34022
26.82    33297
26.84    32718
26.86    32125
26.88    31519
26.9     30684
26.92    29979
26.94    29270
26.96    28663
26.98    28065
27.0     27377
27.02    26798
27.04    26327
27.06    25576
27.08    24957
27.1     24183
27.12    23717
27.14    23097
27.16    22647
27.18    21937
27.2     21363
27.22    20812
27.24    20350
27.26    19913
27.28    19419
27.3     18936
27.32    18598
27.34    18317
27.36    17754
27.38    17262
27.4     16852
27.42    16528
27.44    16231
27.46    15774
27.48    15402
27.5     15085
27.52    14704
27.54    14352
27.56    14050
27.58    13709
27.6     13498
27.62    13237
27.64    12826
27.66    12618
27.68    12347
27.7     12194
27.72    11948
27.74    11962
27.76    11942
27.78    11706
27.8     11298
27.82    11189
27.84    11252
27.86    11165
27.88    10843
27.9     10839
27.92    10733
27.94    10796
27.96    10656
27.98    10708
28.0     10556
28.02    10506
28.04    10559
28.06    10506
28.08    10486
28.1     10557
28.12    10501
28.14    10554
28.16    10598
28.18    10689
28.2     10525
28.22    10720
28.24    10776
28.26    10715
28.28    10773
28.3     11034
28.32    10941
28.34    11108
28.36    11430
28.38    11561
28.4     11560
28.42    11699
28.44    11836
28.46    12137
28.48    12344
28.5     12522
28.52    12606
28.54    12816
28.56    12990
28.58    13225
28.6     13534
28.62    14035
28.64    14664
28.66    14914
28.68    14858
28.7     14950
28.72    15154
28.74    15394
28.76    15568
28.78    15426
28.8     15600
28.82    16107
28.84    16307
28.86    16354
28.88    16740
28.9     17056
28.92    17396
28.94    17700
28.96    17708
28.98    18133
29.0     18556
29.02    18769
29.04    18935
29.06    19348
29.08    19732
29.1     19951
29.12    20180
29.14    20671
29.16    20736
29.18    21031
29.2     21402
29.22    21746
29.24    22031
29.26    22342
29.28    22738
29.3     23045
29.32    23214
29.34    23620
29.36    23795
29.38    24284
29.4     24581
29.42    24872
29.44    25065
29.46    25451
29.48    25690
29.5     25907
29.52    26200
29.54    26361
29.56    26730
29.58    27000
29.6     27198
29.62    27437
29.64    27631
29.66    27805
29.68    28063
29.7     28313
29.72    28496
29.74    28668
29.76    28954
29.78    29238
29.8     29173
29.82    29261
29.84    29381
29.86    29628
29.88    29703
29.9     29723
29.92    29865
29.94    29854
29.96    29813
29.98    30115
30.0     29904
30.02    30048
30.04    29907
30.06    29702
30.08    29895
30.1     29904
30.12    29676
30.14    29695
30.16    29492
30.18    29292
30.2     29210
30.22    29012
30.24    28891
30.26    28640
30.28    28549
30.3     28455
30.32    27996
30.34    27970
30.36    27795
30.38    27584
30.4     27305
30.42    27019
30.44    26852
30.46    26528
30.48    26066
30.5     25782
30.52    25719
30.54    25346
30.56    25021
30.58    24664
30.6     24236
30.62    23808
30.64    23733
30.66    23270
30.68    22942
30.7     22689
30.72    22350
30.74    22013
30.76    21770
30.78    21386
30.8     21054
30.82    20608
30.84    20237
30.86    19986
30.88    19534
30.9     19183
30.92    18620
30.94    18503
30.96    18181
30.98    17671
31.0     17387
31.02    17191
31.04    16849
31.06    16488
31.08    16120
31.1     15883
31.12    15592
31.14    15302
31.16    14851
31.18    14550
31.2     14139
31.22    14014
31.24    13529
31.26    13339
31.28    13119
31.3     12733
31.32    12476
31.34    12172
31.36    11818
31.38    11524
31.4     11416
31.42    11246
31.44    10971
31.46    10612
31.48    10463
31.5     10272
31.52    9943
31.54    9781
31.56    9592
31.58    9474
31.6     9306
31.62    9154
31.64    8878
31.66    8768
31.68    8543
31.7     8464
31.72    8330
31.74    8091
31.76    8051
31.78    7878
31.8     7721
31.82    7538
31.84    7529
31.86    7350
31.88    7387
31.9     7352
31.92    7243
31.94    7167
31.96    7058
31.98    6952
32.0     6918
32.02    6838
32.04    6755
32.06    6647
32.08    6613
32.1     6616
32.12    6575
32.14    6424
32.16    6346
32.18    6413
32.2     6416
32.22    6417
32.24    6253
32.26    6327
32.28    6205
32.3     6139
32.32    6152
32.34    6188
32.36    6082
32.38    6133
32.4     6114
32.42    6123
32.44    6006
32.46    5961
32.48    6056
32.5     6020
32.52    6008
32.54    6036
32.56    5888
32.58    5975
32.6     5941
32.62    5951
32.64    5931
32.66    5807
32.68    5823
32.7     5813
32.72    5850
32.74    5796
32.76    5705
32.78    5690
32.8     5714
32.82    5692
32.84    5732
32.86    5734
32.88    5748
32.9     5630
32.92    5626
32.94    5572
32.96    5548
32.98    5456
33.0     5492
33.02    5460
33.04    5419
33.06    5527
33.08    5532
33.1     5393
33.12    5343
33.14    5307
33.16    5320
33.18    5220
33.2     5255
33.22    5171
33.24    5225
33.26    5181
33.28    5082
33.3     5118
33.32    5145
33.34    5071
33.36    5072
33.38    5085
33.4     5024
33.42    4988
33.44    5003
33.46    5033
33.48    4984
33.5     4860
33.52    4936
33.54    4894
33.56    4932
33.58    4820
33.6     4843
33.62    4908
33.64    4788
33.66    4763
33.68    4820
33.7     4794
33.72    4787
33.74    4711
33.76    4778
33.78    4763
33.8     4659
33.82    4660
33.84    4638
33.86    4673
33.88    4668
33.9     4627
33.92    4639
33.94    4654
33.96    4614
33.98    4669
34.0     4553
34.02    4578
34.04    4587
34.06    4539
34.08    4482
34.1     4400
34.12    4486
34.14    4516
34.16    4580
34.18    4521
34.2     4538
34.22    4464
34.24    4479
34.26    4454
34.28    4420
34.3     4469
34.32    4443
34.34    4504
34.36    4449
34.38    4380
34.4     4368
34.42    4419
34.44    4365
34.46    4421
34.48    4276
34.5     4372
34.52    4431
34.54    4389
34.56    4433
34.58    4362
34.6     4404
34.62    4403
34.64    4376
34.66    4326
34.68    4298
34.7     4269
34.72    4302
34.74    4285
34.76    4287
34.78    4310
34.8     4245
34.82    4170
34.84    4133
34.86    4333
34.88    4240
34.9     4290
34.92    4274
34.94    4252
34.96    4158
34.98    4189
35.0     4180
35.02    4209
35.04    4149
35.06    4143
35.08    4173
35.1     4209
35.12    4121
35.14    4124
35.16    4090
35.18    4151
35.2     4136
35.22    4058
35.24    4040
35.26    4035
35.28    4096
35.3     4093
35.32    4102
35.34    3996
35.36    4046
35.38    3988
35.4     4049
35.42    4015
35.44    4032
35.46    4089
35.48    3989
35.5     3970
35.52    3973
35.54    4019
35.56    4011
35.58    3919
35.6     3913
35.62    3955
35.64    3992
35.66    3911
35.68    3920
35.7     3903
35.72    3976
35.74    3897
35.76    3967
35.78    3961
35.8     3925
35.82    3940
35.84    3990
35.86    3960
35.88    3917
35.9     3872
35.92    3885
35.94    3794
35.96    3867
35.98    3841
36.0     3889
36.02    3868
36.04    3829
36.06    3886
36.08    3816
36.1     3821
36.12    3887
36.14    3802
36.16    3821
36.18    3877
36.2     3849
36.22    3811
36.24    3828
36.26    3833
36.28    3862
36.3     3835
36.32    3739
36.34    3779
36.36    3877
36.38    3829
36.4     3763
36.42    3820
36.44    3778
36.46    3806
36.48    3805
36.5     3790
36.52    3737
36.54    3771
36.56    3827
36.58    3786
36.6     3734
36.62    3776
36.64    3728
36.66    3689
36.68    3743
36.7     3670
36.72    3749
36.74    3693
36.76    3808
36.78    3713
36.8     3657
36.82    3680
36.84    3708
36.86    3688
36.88    3667
36.9     3698
36.92    3684
36.94    3703
36.96    3661
36.98    3728
37.0     3746
37.02    3671
37.04    3676
37.06    3655
37.08    3657
37.1     3676
37.12    3693
37.14    3739
37.16    3699
37.18    3750
37.2     3691
37.22    3736
37.24    3610
37.26    3703
37.28    3694
37.3     3739
37.32    3665
37.34    3732
37.36    3661
37.38    3678
37.4     3649
37.42    3710
37.44    3652
37.46    3682
37.48    3741
37.5     3726
37.52    3592
37.54    3628
37.56    3617
37.58    3625
37.6     3680
37.62    3632
37.64    3640
37.66    3729
37.68    3605
37.7     3704
37.72    3632
37.74    3668
37.76    3723
37.78    3644
37.8     3726
37.82    3666
37.84    3605
37.86    3654
37.88    3661
37.9     3694
37.92    3652
37.94    3697
37.96    3690
37.98    3641
38.0     3634
38.02    3681
38.04    3654
38.06    3654
38.08    3668
38.1     3636
38.12    3630
38.14    3646
38.16    3679
38.18    3654
38.2     3694
38.22    3732
38.24    3726
38.26    3740
38.28    3759
38.3     3732
38.32    3687
38.34    3703
38.36    3704
38.38    3718
38.4     3658
38.42    3766
38.44    3663
38.46    3686
38.48    3742
38.5     3682
38.52    3735
38.54    3818
38.56    3776
38.58    3704
38.6     3678
38.62    3729
38.64    3773
38.66    3750
38.68    3705
38.7     3689
38.72    3706
38.74    3673
38.76    3760
38.78    3730
38.8     3734
38.82    3750
38.84    3703
38.86    3769
38.88    3801
38.9     3779
38.92    3726
38.94    3692
38.96    3837
38.98    3707
39.0     3666
39.02    3764
39.04    3754
39.06    3759
39.08    3709
39.1     3723
39.12    3771
39.14    3781
39.16    3778
39.18    3708
39.2     3779
39.22    3741
39.24    3735
39.26    3765
39.28    3761
39.3     3825
39.32    3820
39.34    3834
39.36    3716
39.38    3763
39.4     3741
39.42    3789
39.44    3790
39.46    3803
39.48    3799
39.5     3814
39.52    3863
39.54    3908
39.56    3951
39.58    3927
39.6     3868
39.62    3910
39.64    3828
39.66    3857
39.68    3936
39.7     3935
39.72    3824
39.74    3833
39.76    3920
39.78    3886
39.8     3943
39.82    4039
39.84    3993
39.86    4005
39.88    3922
39.9     4008
39.92    3945
39.94    3977
39.96    3975
39.98    3990
40.0     4052
40.02    4010
40.04    4119
40.06    4087
40.08    4082
40.1     4128
40.12    4036
40.14    4077
40.16    4083
40.18    4094
40.2     4122
40.22    4086
40.24    4215
40.26    4136
40.28    4144
40.3     4074
40.32    4237
40.34    4178
40.36    4226
40.38    4158
40.4     4156
40.42    4189
40.44    4247
40.46    4262
40.48    4173
40.5     4259
40.52    4164
40.54    4245
40.56    4300
40.58    4342
40.6     4342
40.62    4325
40.64    4507
40.66    4383
40.68    4472
40.7     4430
40.72    4433
40.74    4426
40.76    4491
40.78    4510
40.8     4470
40.82    4508
40.84    4594
40.86    4692
40.88    4710
40.9     4804
40.92    4918
40.94    4925
40.96    4922
40.98    5062
41.0     4986
41.02    5053
41.04    5087
41.06    5214
41.08    5374
41.1     5411
41.12    5514
41.14    5621
41.16    5616
41.18    5727
41.2     5929
41.22    5934
41.24    6045
41.26    6256
41.28    6315
41.3     6348
41.32    6476
41.34    6664
41.36    6751
41.38    7013
41.4     7129
41.42    7231
41.44    7410
41.46    7578
41.48    7764
41.5     7998
41.52    8019
41.54    8146
41.56    8529
41.58    8745
41.6     8741
41.62    9131
41.64    9317
41.66    9499
41.68    9681
41.7     9939
41.72    10160
41.74    10341
41.76    10675
41.78    10941
41.8     11107
41.82    11266
41.84    11600
41.86    11864
41.88    12110
41.9     12273
41.92    12640
41.94    12893
41.96    13134
41.98    13528
42.0     13641
42.02    14095
42.04    14465
42.06    14576
42.08    14773
42.1     15012
42.12    15443
42.14    15858
42.16    15867
42.18    16212
42.2     16582
42.22    16878
42.24    17144
42.26    17506
42.28    17749
42.3     17955
42.32    18221
42.34    18542
42.36    18731
42.38    19072
42.4     19370
42.42    19490
42.44    19944
42.46    20113
42.48    20163
42.5     20427
42.52    20847
42.54    21078
42.56    21139
42.58    21488
42.6     21627
42.62    21801
42.64    22159
42.66    22234
42.68    22385
42.7     22406
42.72    22734
42.74    22717
42.76    23000
42.78    23126
42.8     23255
42.82    23379
42.84    23513
42.86    23606
42.88    23679
42.9     23779
42.92    23742
42.94    23738
42.96    23717
42.98    23890
43.0     23860
43.02    23642
43.04    23762
43.06    23914
43.08    23934
43.1     23711
43.12    23783
43.14    23995
43.16    23703
43.18    23573
43.2     23449
43.22    23328
43.24    23367
43.26    23216
43.28    23202
43.3     23089
43.32    22662
43.34    22619
43.36    22555
43.38    22557
43.4     22181
43.42    22150
43.44    21928
43.46    21619
43.48    21454
43.5     21491
43.52    20981
43.54    20712
43.56    20536
43.58    20313
43.6     20143
43.62    20036
43.64    19755
43.66    19287
43.68    19113
43.7     18709
43.72    18549
43.74    18526
43.76    18236
43.78    17894
43.8     17425
43.82    17168
43.84    16992
43.86    16745
43.88    16458
43.9     16255
43.92    16006
43.94    15597
43.96    15251
43.98    14993
44.0     14850
44.02    14550
44.04    14158
44.06    13990
44.08    13821
44.1     13556
44.12    13133
44.14    12881
44.16    12677
44.18    12421
44.2     11938
44.22    11809
44.24    11612
44.26    11296
44.28    11093
44.3     10850
44.32    10576
44.34    10442
44.36    10182
44.38    10042
44.4     9659
44.42    9407
44.44    9256
44.46    9066
44.48    8769
44.5     8537
44.52    8352
44.54    8152
44.56    7922
44.58    7784
44.6     7656
44.62    7571
44.64    7348
44.66    7274
44.68    7098
44.7     6942
44.72    6837
44.74    6721
44.76    6549
44.78    6360
44.8     6199
44.82    6088
44.84    5959
44.86    5870
44.88    5703
44.9     5586
44.92    5550
44.94    5515
44.96    5385
44.98    5207
45.0     5208
45.02    5215
45.04    5046
45.06    5031
45.08    4935
45.1     4842
45.12    4775
45.14    4654
45.16    4613
45.18    4622
45.2     4518
45.22    4540
45.24    4561
45.26    4455
45.28    4420
45.3     4374
45.32    4330
45.34    4313
45.36    4325
45.38    4314
45.4     4233
45.42    4175
45.44    4120
45.46    4216
45.48    4161
45.5     4145
45.52    4135
45.54    4107
45.56    4036
45.58    4063
45.6     4147
45.62    4026
45.64    4009
45.66    3996
45.68    3923
45.7     3968
45.72    3951
45.74    3965
45.76    3875
45.78    3962
45.8     3959
45.82    3912
45.84    3911
45.86    3957
45.88    3928
45.9     3948
45.92    3873
45.94    3934
45.96    3891
45.98    3920
46.0     3830
46.02    3802
46.04    3829
46.06    3840
46.08    3903
46.1     3855
46.12    3882
46.14    3803
46.16    3844
46.18    3828
46.2     3749
46.22    3786
46.24    3778
46.26    3756
46.28    3786
46.3     3776
46.32    3739
46.34    3672
46.36    3748
46.38    3723
46.4     3629
46.42    3646
46.44    3616
46.46    3697
46.48    3654
46.5     3645
46.52    3544
46.54    3581
46.56    3632
46.58    3600
46.6     3612
46.62    3622
46.64    3568
46.66    3568
46.68    3594
46.7     3582
46.72    3618
46.74    3595
46.76    3574
46.78    3561
46.8     3585
46.82    3562
46.84    3513
46.86    3514
46.88    3486
46.9     3564
46.92    3459
46.94    3505
46.96    3521
46.98    3528
47.0     3458
47.02    3476
47.04    3466
47.06    3539
47.08    3503
47.1     3542
47.12    3515
47.14    3469
47.16    3453
47.18    3473
47.2     3481
47.22    3468
47.24    3496
47.26    3494
47.28    3437
47.3     3487
47.32    3520
47.34    3524
47.36    3556
47.38    3540
47.4     3507
47.42    3562
47.44    3451
47.46    3462
47.48    3488
47.5     3560
47.52    3586
47.54    3563
47.56    3553
47.58    3520
47.6     3554
47.62    3505
47.64    3488
47.66    3464
47.68    3459
47.7     3584
47.72    3525
47.74    3579
47.76    3527
47.78    3538
47.8     3511
47.82    3544
47.84    3571
47.86    3541
47.88    3473
47.9     3580
47.92    3572
47.94    3583
47.96    3547
47.98    3515
48.0     3560
48.02    3591
48.04    3551
48.06    3586
48.08    3536
48.1     3532
48.12    3604
48.14    3585
48.16    3603
48.18    3575
48.2     3562
48.22    3538
48.24    3520
48.26    3551
48.28    3604
48.3     3527
48.32    3557
48.34    3593
48.36    3545
48.38    3586
48.4     3532
48.42    3557
48.44    3501
48.46    3503
48.48    3502
48.5     3553
48.52    3571
48.54    3557
48.56    3532
48.58    3590
48.6     3599
48.62    3512
48.64    3519
48.66    3628
48.68    3553
48.7     3617
48.72    3566
48.74    3592
48.76    3598
48.78    3612
48.8     3590
48.82    3591
48.84    3633
48.86    3609
48.88    3675
48.9     3621
48.92    3665
48.94    3694
48.96    3612
48.98    3751
49.0     3710
49.02    3720
49.04    3748
49.06    3781
49.08    3825
49.1     3887
49.12    3960
49.14    3878
49.16    3979
49.18    3967
49.2     4031
49.22    4091
49.24    4149
49.26    4168
49.28    4298
49.3     4374
49.32    4320
49.34    4380
49.36    4398
49.38    4484
49.4     4519
49.42    4566
49.44    4617
49.46    4753
49.48    4776
49.5     4854
49.52    4952
49.54    5022
49.56    5131
49.58    5196
49.6     5216
49.62    5262
49.64    5380
49.66    5479
49.68    5503
49.7     5625
49.72    5701
49.74    5809
49.76    5921
49.78    5937
49.8     6109
49.82    6182
49.84    6295
49.86    6350
49.88    6433
49.9     6504
49.92    6716
49.94    6670
49.96    6823
49.98    7000
50.0     7013
50.02    7172
50.04    7255
50.06    7297
50.08    7500
50.1     7538
50.12    7568
50.14    7859
50.16    7890
50.18    7983
50.2     7970
50.22    8068
50.24    8225
50.26    8291
50.28    8295
50.3     8426
50.32    8572
50.34    8632
50.36    8674
50.38    8778
50.4     8846
50.42    8860
50.44    8863
50.46    8998
50.48    9046
50.5     9147
50.52    9189
50.54    9340
50.56    9430
50.58    9410
50.6     9406
50.62    9549
50.64    9560
50.66    9625
50.68    9671
50.7     9657
50.72    9657
50.74    9752
50.76    9758
50.78    9786
50.8     9783
50.82    9780
50.84    9745
50.86    9837
50.88    9830
50.9     9860
50.92    9810
50.94    9684
50.96    9906
50.98    9684
51.0     9727
51.02    9910
51.04    9908
51.06    9888
51.08    9902
51.1     9751
51.12    9646
51.14    9660
51.16    9641
51.18    9684
51.2     9575
51.22    9631
51.24    9572
51.26    9490
51.28    9381
51.3     9400
51.32    9424
51.34    9331
51.36    9205
51.38    9213
51.4     9122
51.42    9153
51.44    8990
51.46    9025
51.48    8970
51.5     8982
51.52    8866
51.54    8779
51.56    8717
51.58    8515
51.6     8720
51.62    8514
51.64    8531
51.66    8466
51.68    8387
51.7     8317
51.72    8414
51.74    8350
51.76    8238
51.78    8038
51.8     8108
51.82    8112
51.84    7938
51.86    8063
51.88    8005
51.9     7849
51.92    7781
51.94    7877
51.96    7709
51.98    7726
52.0     7779
52.02    7673
52.04    7651
52.06    7704
52.08    7520
52.1     7722
52.12    7610
52.14    7646
52.16    7566
52.18    7529
52.2     7545
52.22    7479
52.24    7458
52.26    7496
52.28    7593
52.3     7469
52.32    7505
52.34    7455
52.36    7459
52.38    7533
52.4     7551
52.42    7656
52.44    7567
52.46    7502
52.48    7621
52.5     7597
52.52    7619
52.54    7678
52.56    7769
52.58    7721
52.6     7660
52.62    7817
52.64    7760
52.66    7816
52.68    7869
52.7     7883
52.72    8048
52.74    7950
52.76    7799
52.78    7959
52.8     7994
52.82    8066
52.84    8214
52.86    8173
52.88    8139
52.9     8233
52.92    8250
52.94    8214
52.96    8288
52.98    8249
53.0     8140
53.02    8314
53.04    8402
53.06    8382
53.08    8409
53.1     8523
53.12    8450
53.14    8599
53.16    8482
53.18    8462
53.2     8485
53.22    8550
53.24    8575
53.26    8527
53.28    8603
53.3     8630
53.32    8538
53.34    8617
53.36    8553
53.38    8635
53.4     8496
53.42    8577
53.44    8581
53.46    8536
53.48    8534
53.5     8458
53.52    8408
53.54    8520
53.56    8516
53.58    8404
53.6     8480
53.62    8355
53.64    8280
53.66    8271
53.68    8233
53.7     8147
53.72    8237
53.74    8029
53.76    8075
53.78    8054
53.8     7997
53.82    7842
53.84    7784
53.86    7782
53.88    7777
53.9     7681
53.92    7556
53.94    7550
53.96    7390
53.98    7466
54.0     7322
54.02    7343
54.04    7203
54.06    7196
54.08    7189
54.1     7103
54.12    6854
54.14    6909
54.16    6745
54.18    6720
54.2     6560
54.22    6550
54.24    6480
54.26    6403
54.28    6279
54.3     6329
54.32    6109
54.34    6011
54.36    5865
54.38    5901
54.4     5874
54.42    5699
54.44    5714
54.46    5608
54.48    5416
54.5     5399
54.52    5412
54.54    5337
54.56    5234
54.58    5093
54.6     5063
54.62    4962
54.64    4874
54.66    4833
54.68    4720
54.7     4660
54.72    4615
54.74    4595
54.76    4469
54.78    4394
54.8     4379
54.82    4280
54.84    4221
54.86    4183
54.88    4095
54.9     3990
54.92    4045
54.94    3872
54.96    3829
54.98    3810
55.0     3781
55.02    3726
55.04    3614
55.06    3562
55.08    3580
55.1     3542
55.12    3469
55.14    3433
55.16    3363
55.18    3317
55.2     3270
55.22    3270
55.24    3248
55.26    3241
55.28    3210
55.3     3190
55.32    3092
55.34    3085
55.36    2989
55.38    3006
55.4     3042
55.42    2989
55.44    2976
55.46    2969
55.48    2940
55.5     2864
55.52    2883
55.54    2841
55.56    2799
55.58    2797
55.6     2845
55.62    2813
55.64    2808
55.66    2753
55.68    2712
55.7     2692
55.72    2726
55.74    2710
55.76    2684
55.78    2713
55.8     2751
55.82    2622
55.84    2659
55.86    2638
55.88    2647
55.9     2667
55.92    2646
55.94    2602
55.96    2622
55.98    2624
56.0     2614
56.02    2606
56.04    2640
56.06    2582
56.08    2605
56.1     2577
56.12    2630
56.14    2608
56.16    2615
56.18    2614
56.2     2641
56.22    2590
56.24    2576
56.26    2509
56.28    2623
56.3     2597
56.32    2557
56.34    2576
56.36    2603
56.38    2594
56.4     2549
56.42    2557
56.44    2554
56.46    2584
56.48    2589
56.5     2539
56.52    2538
56.54    2500
56.56    2515
56.58    2542
56.6     2521
56.62    2564
56.64    2562
56.66    2601
56.68    2536
56.7     2529
56.72    2527
56.74    2537
56.76    2502
56.78    2534
56.8     2433
56.82    2517
56.84    2521
56.86    2500
56.88    2531
56.9     2475
56.92    2456
56.94    2451
56.96    2439
56.98    2444
57.0     2506
57.02    2514
57.04    2469
57.06    2410
57.08    2460
57.1     2421
57.12    2421
57.14    2439
57.16    2480
57.18    2384
57.2     2387
57.22    2405
57.24    2411
57.26    2407
57.28    2414
57.3     2376
57.32    2421
57.34    2397
57.36    2398
57.38    2395
57.4     2363
57.42    2382
57.44    2374
57.46    2342
57.48    2367
57.5     2357
57.52    2385
57.54    2384
57.56    2326
57.58    2345
57.6     2329
57.62    2367
57.64    2326
57.66    2310
57.68    2294
57.7     2304
57.72    2320
57.74    2323
57.76    2341
57.78    2303
57.8     2258
57.82    2271
57.84    2318
57.86    2270
57.88    2296
57.9     2257
57.92    2266
57.94    2271
57.96    2292
57.98    2236
58.0     2259
58.02    2292
58.04    2290
58.06    2309
58.08    2282
58.1     2238
58.12    2237
58.14    2221
58.16    2232
58.18    2224
58.2     2260
58.22    2244
58.24    2304
58.26    2250
58.28    2246
58.3     2244
58.32    2252
58.34    2220
58.36    2245
58.38    2269
58.4     2237
58.42    2267
58.44    2277
58.46    2244
58.48    2207
58.5     2248
58.52    2281
58.54    2261
58.56    2234
58.58    2215
58.6     2255
58.62    2240
58.64    2230
58.66    2218
58.68    2221
58.7     2195
58.72    2159
58.74    2232
58.76    2242
58.78    2224
58.8     2269
58.82    2257
58.84    2207
58.86    2183
58.88    2181
58.9     2209
58.92    2199
58.94    2224
58.96    2202
58.98    2233
59.0     2243
59.02    2218
59.04    2204
59.06    2198
59.08    2243
59.1     2203
59.12    2213
59.14    2168
59.16    2203
59.18    2180
59.2     2249
59.22    2208
59.24    2235
59.26    2243
59.28    2202
59.3     2181
59.32    2207
59.34    2216
59.36    2201
59.38    2144
59.4     2177
59.42    2163
59.44    2171
59.46    2127
59.48    2204
59.5     2146
59.52    2176
59.54    2152
59.56    2164
59.58    2149
59.6     2167
59.62    2189
59.64    2166
59.66    2177
59.68    2178
59.7     2172
59.72    2190
59.74    2136
59.76    2137
59.78    2132
59.8     2153
59.82    2215
59.84    2167
59.86    2109
59.88    2196
59.9     2190
59.92    2139
59.94    2141
59.96    2141
59.98    2188
60.0     2201
60.02    2165
60.04    2169
60.06    2155
60.08    2168
60.1     2124
60.12    2135
60.14    2113
60.16    2142
60.18    2145
60.2     2138
60.22    2169
60.24    2194
60.26    2177
60.28    2181
60.3     2122
60.32    2154
60.34    2195
60.36    2231
60.38    2191
60.4     2119
60.42    2201
60.44    2174
60.46    2166
60.48    2186
60.5     2189
60.52    2187
60.54    2176
60.56    2199
60.58    2198
60.6     2220
60.62    2199
60.64    2181
60.66    2233
60.68    2231
60.7     2255
60.72    2252
60.74    2198
60.76    2274
60.78    2263
60.8     2286
60.82    2306
60.84    2277
60.86    2276
60.88    2284
60.9     2260
60.92    2280
60.94    2326
60.96    2304
60.98    2356
61.0     2363
61.02    2358
61.04    2342
61.06    2379
61.08    2392
61.1     2355
61.12    2333
61.14    2414
61.16    2439
61.18    2409
61.2     2428
61.22    2459
61.24    2444
61.26    2476
61.28    2452
61.3     2477
61.32    2493
61.34    2487
61.36    2513
61.38    2523
61.4     2565
61.42    2591
61.44    2565
61.46    2566
61.48    2607
61.5     2612
61.52    2598
61.54    2595
61.56    2620
61.58    2680
61.6     2688
61.62    2687
61.64    2688
61.66    2712
61.68    2730
61.7     2713
61.72    2730
61.74    2752
61.76    2740
61.78    2739
61.8     2778
61.82    2787
61.84    2838
61.86    2847
61.88    2882
61.9     2821
61.92    2819
61.94    2854
61.96    2856
61.98    2830
62.0     2904
62.02    2893
62.04    2922
62.06    2935
62.08    2929
62.1     2930
62.12    2970
62.14    2923
62.16    2971
62.18    3003
62.2     3050
62.22    3005
62.24    2934
62.26    3003
62.28    3023
62.3     3001
62.32    2986
62.34    3008
62.36    2999
62.38    3034
62.4     2999
62.42    3015
62.44    3035
62.46    2985
62.48    2992
62.5     2998
62.52    2999
62.54    3003
62.56    3014
62.58    2966
62.6     2995
62.62    2965
62.64    2991
62.66    3010
62.68    2975
62.7     2956
62.72    2971
62.74    2954
62.76    3000
62.78    2976
62.8     2945
62.82    2935
62.84    2918
62.86    2920
62.88    2946
62.9     2888
62.92    2875
62.94    2883
62.96    2950
62.98    2835
63.0     2897
63.02    2888
63.04    2817
63.06    2815
63.08    2871
63.1     2788
63.12    2790
63.14    2762
63.16    2775
63.18    2787
63.2     2780
63.22    2826
63.24    2757
63.26    2719
63.28    2717
63.3     2703
63.32    2697
63.34    2688
63.36    2658
63.38    2643
63.4     2613
63.42    2623
63.44    2636
63.46    2594
63.48    2570
63.5     2559
63.52    2544
63.54    2544
63.56    2454
63.58    2454
63.6     2501
63.62    2492
63.64    2487
63.66    2492
63.68    2480
63.7     2432
63.72    2413
63.74    2402
63.76    2419
63.78    2417
63.8     2407
63.82    2347
63.84    2318
63.86    2302
63.88    2308
63.9     2253
63.92    2289
63.94    2290
63.96    2300
63.98    2270
64.0     2254
64.02    2262
64.04    2264
64.06    2225
64.08    2225
64.1     2192
64.12    2178
64.14    2154
64.16    2147
64.18    2166
64.2     2153
64.22    2123
64.24    2164
64.26    2158
64.28    2143
64.3     2138
64.32    2146
64.34    2111
64.36    2146
64.38    2126
64.4     2067
64.42    2068
64.44    2057
64.46    2105
64.48    2106
64.5     2069
64.52    2076
64.54    2082
64.56    2079
64.58    2121
64.6     2033
64.62    2042
64.64    2045
64.66    2028
64.68    2042
64.7     2009
64.72    2050
64.74    2033
64.76    2005
64.78    2025
64.8     2045
64.82    2058
64.84    1997
64.86    1978
64.88    1987
64.9     2033
64.92    2053
64.94    2033
64.96    2044
64.98    2007
65.0     1993
65.02    1985
65.04    1998
65.06    2003
65.08    2040
65.1     2014
65.12    1985
65.14    2021
65.16    2045
65.18    2046
65.2     2025
65.22    2057
65.24    2008
65.26    2011
65.28    2037
65.3     1983
65.32    2021
65.34    2012
65.36    2024
65.38    2020
65.4     2037
65.42    2044
65.44    1998
65.46    2030
65.48    2036
65.5     2017
65.52    2019
65.54    2069
65.56    2070
65.58    2057
65.6     2000
65.62    2028
65.64    2061
65.66    2055
65.68    2043
65.7     2047
65.72    2019
65.74    2016
65.76    2061
65.78    2046
65.8     2067
65.82    2061
65.84    2044
65.86    2043
65.88    2045
65.9     2051
65.92    2031
65.94    2031
65.96    1988
65.98    2004
66.0     2036
66.02    2058
66.04    2079
66.06    2064
66.08    2065
66.1     2076
66.12    2067
66.14    2030
66.16    2041
66.18    2038
66.2     2054
66.22    2068
66.24    2096
66.26    2095
66.28    2086
66.3     2108
66.32    2081
66.34    2065
66.36    2065
66.38    2079
66.4     2132
66.42    2137
66.44    2060
66.46    2082
66.48    2114
66.5     2088
66.52    2093
66.54    2132
66.56    2165
66.58    2138
66.6     2165
66.62    2155
66.64    2194
66.66    2149
66.68    2171
66.7     2179
66.72    2232
66.74    2230
66.76    2236
66.78    2209
66.8     2249
66.82    2245
66.84    2223
66.86    2227
66.88    2247
66.9     2314
66.92    2336
66.94    2324
66.96    2328
66.98    2323
67.0     2341
67.02    2392
67.04    2383
67.06    2366
67.08    2393
67.1     2430
67.12    2461
67.14    2436
67.16    2494
67.18    2471
67.2     2521
67.22    2543
67.24    2527
67.26    2588
67.28    2592
67.3     2645
67.32    2649
67.34    2616
67.36    2648
67.38    2724
67.4     2743
67.42    2779
67.44    2766
67.46    2788
67.48    2829
67.5     2874
67.52    2817
67.54    2912
67.56    2930
67.58    2987
67.6     3032
67.62    3007
67.64    2996
67.66    3052
67.68    3120
67.7     3121
67.72    3185
67.74    3202
67.76    3183
67.78    3205
67.8     3254
67.82    3267
67.84    3313
67.86    3335
67.88    3340
67.9     3372
67.92    3414
67.94    3399
67.96    3464
67.98    3461
68.0     3477
68.02    3500
68.04    3535
68.06    3541
68.08    3618
68.1     3667
68.12    3654
68.14    3724
68.16    3680
68.18    3742
68.2     3737
68.22    3747
68.24    3762
68.26    3795
68.28    3828
68.3     3913
68.32    3880
68.34    3901
68.36    3925
68.38    3953
68.4     3944
68.42    4000
68.44    4028
68.46    4047
68.48    3996
68.5     4001
68.52    4062
68.54    4131
68.56    4150
68.58    4139
68.6     4088
68.62    4143
68.64    4183
68.66    4232
68.68    4258
68.7     4234
68.72    4172
68.74    4199
68.76    4196
68.78    4209
68.8     4224
68.82    4253
68.84    4302
68.86    4273
68.88    4227
68.9     4311
68.92    4325
68.94    4314
68.96    4324
68.98    4319
69.0     4327
69.02    4339
69.04    4362
69.06    4364
69.08    4404
69.1     4363
69.12    4348
69.14    4324
69.16    4364
69.18    4371
69.2     4369
69.22    4435
69.24    4399
69.26    4359
69.28    4386
69.3     4378
69.32    4436
69.34    4434
69.36    4394
69.38    4369
69.4     4406
69.42    4370
69.44    4368
69.46    4383
69.48    4396
69.5     4425
69.52    4415
69.54    4388
69.56    4405
69.58    4359
69.6     4399
69.62    4377
69.64    4363
69.66    4388
69.68    4379
69.7     4378
69.72    4431
69.74    4412
69.76    4418
69.78    4370
69.8     4381
69.82    4435
69.84    4416
69.86    4373
69.88    4488
69.9     4493
69.92    4383
69.94    4399
69.96    4448
69.98    4427
70.0     4431
70.02    4465
70.04    4422
70.06    4390
70.08    4474
70.1     4449
70.12    4420
70.14    4486
70.16    4447
70.18    4455
70.2     4512
70.22    4486
70.24    4428
70.26    4518
70.28    4518
70.3     4468
70.32    4453
70.34    4439
70.36    4474
70.38    4500
70.4     4507
70.42    4515
70.44    4537
70.46    4475
70.48    4475
70.5     4457
70.52    4478
70.54    4433
70.56    4434
70.58    4447
70.6     4466
70.62    4439
70.64    4463
70.66    4492
70.68    4472
70.7     4414
70.72    4438
70.74    4421
70.76    4444
70.78    4483
70.8     4413
70.82    4403
70.84    4402
70.86    4369
70.88    4372
70.9     4423
70.92    4393
70.94    4357
70.96    4357
70.98    4368
71.0     4340
71.02    4316
71.04    4248
71.06    4239
71.08    4270
71.1     4301
71.12    4310
71.14    4243
71.16    4227
71.18    4158
71.2     4168
71.22    4159
71.24    4126
71.26    4121
71.28    4137
71.3     4146
71.32    4086
71.34    4114
71.36    4019
71.38    3959
71.4     4006
71.42    3943
71.44    3955
71.46    3909
71.48    3878
71.5     3852
71.52    3865
71.54    3864
71.56    3771
71.58    3755
71.6     3774
71.62    3778
71.64    3738
71.66    3730
71.68    3633
71.7     3573
71.72    3595
71.74    3534
71.76    3528
71.78    3504
71.8     3444
71.82    3428
71.84    3436
71.86    3387
71.88    3376
71.9     3303
71.92    3317
71.94    3239
71.96    3230
71.98    3197
72.0     3166
72.02    3120
72.04    3081
72.06    3109
72.08    3046
72.1     3019
72.12    3015
72.14    2980
72.16    2950
72.18    2917
72.2     2902
72.22    2887
72.24    2804
72.26    2788
72.28    2763
72.3     2736
72.32    2713
72.34    2699
72.36    2644
72.38    2629
72.4     2600
72.42    2563
72.44    2582
72.46    2539
72.48    2525
72.5     2488
72.52    2512
72.54    2494
72.56    2471
72.58    2378
72.6     2363
72.62    2331
72.64    2355
72.66    2322
72.68    2283
72.7     2276
72.72    2258
72.74    2235
72.76    2275
72.78    2238
72.8     2187
72.82    2152
72.84    2117
72.86    2110
72.88    2115
72.9     2089
72.92    2072
72.94    2068
72.96    2068
72.98    2056
73.0     2038
73.02    2054
73.04    1972
73.06    1995
73.08    1990
73.1     1996
73.12    2007
73.14    1983
73.16    1954
73.18    1940
73.2     1956
73.22    1920
73.24    1864
73.26    1863
73.28    1878
73.3     1863
73.32    1865
73.34    1850
73.36    1868
73.38    1838
73.4     1841
73.42    1835
73.44    1816
73.46    1798
73.48    1824
73.5     1793
73.52    1782
73.54    1790
73.56    1803
73.58    1791
73.6     1744
73.62    1765
73.64    1789
73.66    1766
73.68    1766
73.7     1762
73.72    1780
73.74    1784
73.76    1795
73.78    1806
73.8     1785
73.82    1764
73.84    1771
73.86    1726
73.88    1733
73.9     1766
73.92    1754
73.94    1728
73.96    1743
73.98    1744
74.0     1749
74.02    1754
74.04    1758
74.06    1765
74.08    1720
74.1     1729
74.12    1749
74.14    1744
74.16    1717
74.18    1688
74.2     1711
74.22    1716
74.24    1706
74.26    1709
74.28    1729
74.3     1743
74.32    1759
74.34    1736
74.36    1710
74.38    1726
74.4     1716
74.42    1716
74.44    1696
74.46    1717
74.48    1701
74.5     1699
74.52    1701
74.54    1705
74.56    1691
74.58    1698
74.6     1708
74.62    1686
74.64    1704
74.66    1717
74.68    1690
74.7     1717
74.72    1730
74.74    1691
74.76    1673
74.78    1676
74.8     1654
74.82    1657
74.84    1668
74.86    1682
74.88    1674
74.9     1699
74.92    1691
74.94    1668
74.96    1675
74.98    1651
75.0     1647
75.02    1678
75.04    1719
75.06    1702
75.08    1652
75.1     1651
75.12    1665
75.14    1672
75.16    1687
75.18    1669
75.2     1681
75.22    1661
75.24    1675
75.26    1652
75.28    1681
75.3     1706
75.32    1670
75.34    1646
75.36    1643
75.38    1648
75.4     1651
75.42    1653
75.44    1672
75.46    1642
75.48    1635
75.5     1662
75.52    1608
75.54    1628
75.56    1660
75.58    1628
75.6     1654
75.62    1629
75.64    1625
75.66    1632
75.68    1624
75.7     1652
75.72    1635
75.74    1633
75.76    1629
75.78    1619
75.8     1618
75.82    1635
75.84    1624
75.86    1642
75.88    1661
75.9     1645
75.92    1649
75.94    1637
75.96    1595
75.98    1648
76.0     1634
76.02    1606
76.04    1592
76.06    1597
76.08    1624
76.1     1619
76.12    1623
76.14    1602
76.16    1615
76.18    1654
76.2     1631
76.22    1636
76.24    1638
76.26    1637
76.28    1621
76.3     1642
76.32    1623
76.34    1618
76.36    1621
76.38    1620
76.4     1608
76.42    1652
76.44    1674
76.46    1634
76.48    1645
76.5     1654
76.52    1670
76.54    1658
76.56    1650
76.58    1659
76.6     1653
76.62    1659
76.64    1681
76.66    1674
76.68    1688
76.7     1675
76.72    1676
76.74    1712
76.76    1729
76.78    1736
76.8     1706
76.82    1694
76.84    1704
76.86    1718
76.88    1765
76.9     1762
76.92    1773
76.94    1767
76.96    1810
76.98    1804
77.0     1821
77.02    1776
77.04    1786
77.06    1835
77.08    1862
77.1     1870
77.12    1863
77.14    1855
77.16    1867
77.18    1910
77.2     1915
77.22    1923
77.24    1908
77.26    1944
77.28    1973
77.3     1997
77.32    1999
77.34    1984
77.36    2031
77.38    2043
77.4     2041
77.42    2054
77.44    2107
77.46    2110
77.48    2081
77.5     2124
77.52    2141
77.54    2146
77.56    2167
77.58    2204
77.6     2218
77.62    2232
77.64    2243
77.66    2298
77.68    2322
77.7     2313
77.72    2326
77.74    2317
77.76    2331
77.78    2393
77.8     2403
77.82    2480
77.84    2480
77.86    2478
77.88    2499
77.9     2482
77.92    2501
77.94    2513
77.96    2529
77.98    2518
78.0     2577
78.02    2601
78.04    2625
78.06    2653
78.08    2629
78.1     2631
78.12    2620
78.14    2686
78.16    2694
78.18    2739
78.2     2774
78.22    2789
78.24    2758
78.26    2772
78.28    2771
78.3     2792
78.32    2798
78.34    2822
78.36    2866
78.38    2871
78.4     2873
78.42    2889
78.44    2869
78.46    2894
78.48    2883
78.5     2898
78.52    2943
78.54    2985
78.56    2996
78.58    2991
78.6     2998
78.62    2958
78.64    2939
78.66    2993
78.68    3025
78.7     3002
78.72    3004
78.74    3063
78.76    3018
78.78    3005
78.8     3013
78.82    3004
78.84    3051
78.86    3023
78.88    3018
78.9     2987
78.92    3050
78.94    2986
78.96    2977
78.98    3065
79.0     3066
79.02    3010
79.04    2983
79.06    3025
79.08    3056
79.1     3025
79.12    2985
79.14    3039
79.16    3037
79.18    2978
79.2     2979
79.22    2978
79.24    2912
79.26    2921
79.28    2920
79.3     2926
79.32    2907
79.34    2905
79.36    2891
79.38    2892
79.4     2859
79.42    2852
79.44    2818
79.46    2837
79.48    2807
79.5     2787
79.52    2795
79.54    2760
79.56    2709
79.58    2725
79.6     2740
79.62    2685
79.64    2716
79.66    2655
79.68    2661
79.7     2633
79.72    2617
79.74    2609
79.76    2595
79.78    2567
79.8     2551
79.82    2537
79.84    2483
79.86    2482
79.88    2446
79.9     2473
79.92    2445
79.94    2395
79.96    2390
79.98    2389
80.0     2399
80.02    2371
80.04    2335
80.06    2288
80.08    2270
80.1     2255
80.12    2219
80.14    2227
80.16    2204
80.18    2181
80.2     2147
80.22    2163
80.24    2135
80.26    2140
80.28    2124
80.3     2106
80.32    2091
80.34    2079
80.36    2042
80.38    1993
80.4     1961
80.42    1989
80.44    1960
80.46    1953
80.48    1898
80.5     1898
80.52    1880
80.54    1840
80.56    1872
80.58    1868
80.6     1850
80.62    1834
80.64    1795
80.66    1795
80.68    1768
80.7     1754
80.72    1773
80.74    1761
80.76    1738
80.78    1717
80.8     1695
80.82    1725
80.84    1726
80.86    1650
80.88    1632
80.9     1638
80.92    1641
80.94    1653
80.96    1647
80.98    1581
81.0     1585
81.02    1556
81.04    1595
81.06    1612
81.08    1584
81.1     1562
81.12    1575
81.14    1553
81.16    1540
81.18    1519
81.2     1540
81.22    1519
81.24    1511
81.26    1498
81.28    1504
81.3     1487
81.32    1471
81.34    1450
81.36    1456
81.38    1451
81.4     1420
81.42    1474
81.44    1439
81.46    1430
81.48    1404
81.5     1406
81.52    1425
81.54    1435
81.56    1436
81.58    1430
81.6     1435
81.62    1433
81.64    1445
81.66    1432
81.68    1418
81.7     1415
81.72    1395
81.74    1423
81.76    1394
81.78    1364
81.8     1380
81.82    1377
81.84    1382
81.86    1390
81.88    1401
81.9     1399
81.92    1387
81.93    1413
81.96    1393
81.98    1359
82.0     1395
82.02    1359
82.04    1399
82.06    1347
82.08    1363
82.1     1386
82.12    1372
82.14    1397
82.16    1387
82.18    1342
82.2     1392
82.22    1405
82.24    1360
82.26    1415
82.28    1391
82.3     1378
82.32    1394
82.34    1362
82.36    1370
82.38    1385
82.4     1378
82.42    1392
82.43    1385
82.46    1395
82.48    1429
82.5     1404
82.52    1416
82.54    1403
82.56    1393
82.58    1400
82.6     1424
82.62    1422
82.64    1451
82.66    1446
82.68    1451
82.7     1435
82.72    1423
82.74    1469
82.76    1455
82.78    1435
82.8     1426
82.82    1432
82.84    1452
82.86    1489
82.88    1463
82.9     1460
82.92    1503
82.93    1509
82.96    1502
82.98    1484
83.0     1498
83.02    1531
83.04    1543
83.06    1529
83.08    1515
83.1     1570
83.12    1554
83.14    1569
83.16    1531
83.18    1535
83.2     1530
83.22    1565
83.24    1555
83.26    1579
83.28    1615
83.3     1610
83.32    1608
83.34    1609
83.36    1608
83.38    1622
83.4     1629
83.42    1650
83.43    1643
83.46    1669
83.48    1694
83.5     1673
83.52    1675
83.54    1667
83.56    1686
83.58    1697
83.6     1707
83.62    1727
83.64    1700
83.66    1719
83.68    1729
83.7     1707
83.72    1719
83.74    1731
83.76    1757
83.78    1797
83.8     1783
83.82    1789
83.84    1773
83.86    1802
83.88    1797
83.9     1792
83.92    1822
83.93    1877
83.96    1849
83.98    1851
84.0     1839
84.02    1855
84.04    1870
84.06    1898
84.08    1901
84.1     1875
84.12    1886
84.14    1846
84.16    1875
84.18    1890
84.2     1921
84.22    1874
84.24    1903
84.26    1956
84.28    1937
84.3     1907
84.32    1947
84.34    1922
84.36    1920
84.38    1961
84.4     1953
84.42    1942
84.43    1964
84.46    1992
84.48    1923
84.5     1929
84.52    1935
84.54    1957
84.56    1988
84.58    1991
84.6     1986
84.62    1994
84.64    1980
84.66    1963
84.68    1973
84.7     1966
84.72    1962
84.74    1973
84.76    1978
84.78    1952
84.8     1970
84.82    1974
84.84    1954
84.86    1918
84.88    1960
84.9     1950
84.92    1962
84.93    1930
84.96    1956
84.98    1967
85.0     1961
85.02    1948
85.04    1938
85.06    1934
85.08    1980
85.1     1934
85.12    1891
85.14    1916
85.16    1934
85.18    1906
85.2     1914
85.22    1898
85.24    1881
85.26    1869
85.28    1891
85.3     1891
85.32    1869
85.34    1867
85.36    1864
85.38    1874
85.4     1837
85.42    1816
85.43    1836
85.46    1824
85.48    1791
85.5     1801
85.52    1802
85.54    1797
85.56    1759
85.58    1755
85.6     1764
85.62    1739
85.64    1720
85.66    1752
85.68    1744
85.7     1729
85.72    1728
85.74    1709
85.76    1709
85.78    1681
85.8     1670
85.82    1624
85.84    1630
85.86    1630
85.88    1623
85.9     1591
85.92    1613
85.93    1623
85.96    1595
85.98    1579
86.0     1586
86.02    1584
86.04    1552
86.06    1524
86.08    1581
86.1     1535
86.12    1503
86.14    1536
86.16    1507
86.18    1530
86.2     1501
86.22    1513
86.24    1514
86.26    1503
86.28    1473
86.3     1462
86.32    1482
86.34    1440
86.36    1382
86.38    1428
86.4     1420
86.42    1433
86.43    1438
86.46    1420
86.48    1407
86.5     1410
86.52    1388
86.54    1376
86.56    1377
86.58    1373
86.6     1334
86.62    1362
86.64    1363
86.66    1326
86.68    1307
86.7     1341
86.72    1334
86.74    1274
86.76    1303
86.78    1300
86.8     1309
86.82    1306
86.84    1303
86.86    1294
86.88    1270
86.9     1289
86.92    1271
86.93    1248
86.96    1267
86.98    1253
87.0     1281
87.02    1279
87.04    1249
87.06    1264
87.08    1210
87.1     1223
87.12    1194
87.14    1223
87.16    1232
87.18    1260
87.2     1282
87.22    1229
87.24    1216
87.26    1263
87.28    1236
87.3     1208
87.32    1193
87.34    1198
87.36    1219
87.38    1193
87.4     1205
87.42    1221
87.43    1162
87.46    1180
87.48    1202
87.5     1180
87.52    1214
87.54    1207
87.56    1204
87.58    1194
87.6     1198
87.62    1200
87.64    1208
87.66    1193
87.68    1201
87.7     1150
87.72    1178
87.74    1195
87.76    1183
87.78    1177
87.8     1147
87.82    1166
87.84    1174
87.86    1174
87.88    1168
87.9     1149
87.92    1165
87.93    1180
87.96    1193
87.98    1218
88.0     1188
88.02    1177
88.04    1181
88.06    1169
88.08    1186
88.1     1175
88.12    1186
88.14    1177
88.16    1185
88.18    1121
88.2     1169
88.22    1130
88.24    1151
88.26    1141
88.28    1180
88.3     1143
88.32    1150
88.34    1158
88.36    1164
88.38    1165
88.4     1162
88.42    1190
88.43    1154
88.46    1125
88.48    1152
88.5     1144
88.52    1134
88.54    1167
88.56    1215
88.58    1159
88.6     1157
88.62    1156
88.64    1145
88.66    1123
88.68    1165
88.7     1183
88.72    1169
88.74    1135
88.76    1134
88.78    1123
88.8     1153
88.82    1153
88.84    1154
88.86    1129
88.88    1133
88.9     1129
88.92    1166
88.93    1141
88.96    1137
88.98    1141
89.0     1161
89.02    1120
89.04    1152
89.06    1143
89.08    1110
89.1     1123
89.12    1157
89.14    1136
89.16    1138
89.18    1119
89.2     1131
89.22    1145
89.24    1151
89.26    1132
89.28    1123
89.3     1135
89.32    1160
89.34    1122
89.36    1120
89.38    1142
89.4     1142
89.42    1131
89.43    1128
89.46    1150
89.48    1123
89.5     1136
89.52    1147
89.54    1094
89.56    1108
89.58    1136
89.6     1139
89.62    1119
89.64    1138
89.66    1156
89.68    1115
89.7     1132
89.72    1129
89.74    1124
89.76    1124
89.78    1115
89.8     1100
89.82    1112
89.84    1100
89.86    1135
89.88    1107
89.9     1151
89.92    1142
89.93    1117
89.96    1123
89.98    1114
90.0     1132
90.02    1099
90.04    1129
90.06    1125
90.08    1137
90.1     1145
90.12    1145
90.14    1135
90.16    1136
90.18    1147
90.2     1177
90.22    1116
90.24    1115
90.26    1120
90.28    1137
90.3     1106
90.32    1124
90.34    1088
90.36    1137
90.38    1120
90.4     1124
90.42    1114
90.43    1143
90.46    1174
90.48    1133
90.5     1139
90.52    1129
90.54    1130
90.56    1108
90.58    1116
90.6     1119
90.62    1122
90.64    1099
90.66    1117
90.68    1106
90.7     1125
90.72    1058
90.74    1112
90.76    1116
90.78    1105
90.8     1125
90.82    1095
90.84    1136
90.86    1129
90.88    1096
90.9     1120
90.92    1103
90.93    1117
90.96    1151
90.98    1136
91.0     1139
91.02    1141
91.04    1124
91.06    1110
91.08    1111
91.1     1168
91.12    1129
91.14    1125
91.16    1130
91.18    1107
91.2     1128
91.22    1146
91.24    1116
91.26    1128
91.28    1135
91.3     1125
91.32    1133
91.34    1150
91.36    1131
91.38    1125
91.4     1092
91.42    1149
91.43    1108
91.46    1100
91.48    1119
91.5     1143
91.52    1142
91.54    1092
91.56    1139
91.58    1148
91.6     1125
91.62    1141
91.64    1140
91.66    1157
91.68    1143
91.7     1145
91.72    1149
91.74    1136
91.76    1158
91.78    1140
91.8     1119
91.82    1130
91.84    1128
91.86    1159
91.88    1157
91.9     1165
91.92    1140
91.93    1156
91.96    1157
91.98    1144
92.0     1139
92.02    1159
92.04    1136
92.06    1171
92.08    1174
92.1     1169
92.12    1162
92.14    1182
92.16    1171
92.18    1167
92.2     1172
92.22    1183
92.24    1169
92.26    1175
92.28    1203
92.3     1213
92.32    1180
92.34    1211
92.36    1183
92.38    1187
92.4     1177
92.42    1190
92.43    1193
92.46    1201
92.48    1201
92.5     1183
92.52    1230
92.54    1210
92.56    1247
92.58    1261
92.6     1228
92.62    1239
92.64    1219
92.66    1246
92.68    1242
92.7     1231
92.72    1274
92.74    1257
92.76    1292
92.78    1291
92.8     1284
92.82    1266
92.84    1289
92.86    1270
92.88    1316
92.9     1343
92.92    1316
92.93    1316
92.96    1266
92.98    1304
93.0     1305
93.02    1311
93.04    1322
93.06    1304
93.08    1336
93.1     1327
93.12    1349
93.14    1358
93.16    1358
93.18    1355
93.2     1326
93.22    1375
93.24    1363
93.26    1352
93.28    1392
93.3     1382
93.32    1405
93.34    1385
93.36    1384
93.38    1382
93.4     1374
93.42    1430
93.43    1406
93.46    1372
93.48    1399
93.5     1412
93.52    1378
93.54    1421
93.56    1417
93.58    1446
93.6     1469
93.62    1434
93.64    1443
93.66    1456
93.68    1459
93.7     1448
93.72    1462
93.74    1498
93.76    1501
93.78    1466
93.8     1503
93.82    1476
93.84    1466
93.86    1481
93.88    1494
93.9     1508
93.92    1497
93.93    1505
93.96    1501
93.98    1502
94.0     1485
94.02    1511
94.04    1518
94.06    1522
94.08    1521
94.1     1512
94.12    1503
94.14    1547
94.16    1500
94.18    1514
94.2     1489
94.22    1531
94.24    1496
94.26    1517
94.28    1509
94.3     1507
94.32    1499
94.34    1520
94.36    1525
94.38    1527
94.4     1561
94.42    1523
94.43    1501
94.46    1506
94.48    1543
94.5     1526
94.52    1519
94.54    1505
94.56    1505
94.58    1489
94.6     1520
94.62    1538
94.64    1515
94.66    1494
94.68    1502
94.7     1538
94.72    1536
94.74    1537
94.76    1511
94.78    1506
94.8     1500
94.82    1509
94.84    1473
94.86    1499
94.88    1496
94.9     1477
94.92    1505
94.93    1491
94.96    1490
94.98    1482
95.0     1515
95.02    1511
95.04    1502
95.06    1524
95.08    1503
95.1     1490
95.12    1462
95.14    1453
95.16    1468
95.18    1486
95.2     1466
95.22    1470
95.24    1447
95.25    1437
95.28    1455
95.3     1454
95.32    1417
95.34    1461
95.36    1438
95.38    1429
95.4     1429
95.42    1424
95.43    1443
95.46    1408
95.48    1433
95.5     1409
95.52    1413
95.54    1399
95.56    1385
95.58    1400
95.6     1370
95.62    1396
95.64    1383
95.66    1372
95.68    1384
95.7     1373
95.72    1338
95.74    1366
95.75    1394
95.78    1380
95.8     1347
95.82    1360
95.84    1357
95.86    1345
95.88    1310
95.9     1342
95.92    1344
95.93    1342
95.96    1310
95.98    1293
96.0     1302
96.02    1320
96.04    1327
96.06    1310
96.08    1289
96.1     1278
96.12    1296
96.14    1307
96.16    1280
96.18    1254
96.2     1271
96.22    1263
96.24    1286
96.25    1260
96.28    1271
96.3     1273
96.32    1264
96.34    1287
96.36    1302
96.38    1257
96.4     1249
96.42    1218
96.43    1248
96.46    1218
96.48    1241
96.5     1268
96.52    1263
96.54    1256
96.56    1208
96.58    1230
96.6     1212
96.62    1191
96.64    1216
96.66    1224
96.68    1248
96.7     1232
96.72    1193
96.74    1195
96.75    1186
96.78    1203
96.8     1209
96.82    1205
96.84    1213
96.86    1195
96.88    1199
96.9     1208
96.92    1217
96.93    1185
96.96    1207
96.98    1199
97.0     1200
97.02    1182
97.04    1212
97.06    1188
97.08    1165
97.1     1174
97.12    1227
97.14    1173
97.16    1190
97.18    1221
97.2     1195
97.22    1182
97.24    1226
97.25    1194
97.28    1203
97.3     1190
97.32    1195
97.34    1195
97.36    1186
97.38    1148
97.4     1187
97.42    1204
97.43    1202
97.46    1196
97.48    1207
97.5     1185
97.52    1211
97.54    1229
97.56    1220
97.58    1213
97.6     1217
97.62    1205
97.64    1170
97.66    1187
97.68    1235
97.7     1240
97.72    1246
97.74    1221
97.75    1206
97.78    1214
97.8     1205
97.82    1231
97.84    1239
97.86    1238
97.88    1253
97.9     1242
97.92    1219
97.93    1259
97.96    1248
97.98    1247
98.0     1278
98.02    1257
98.04    1250
98.06    1239
98.08    1267
98.1     1262
98.12    1253
98.14    1239
98.16    1264
98.18    1255
98.2     1273
98.22    1275
98.24    1293
98.25    1273
98.28    1288
98.3     1304
98.32    1321
98.34    1289
98.36    1304
98.38    1314
98.4     1338
98.42    1345
98.43    1331
98.46    1353
98.48    1358
98.5     1321
98.52    1343
98.54    1305
98.56    1330
98.58    1342
98.6     1369
98.62    1390
98.64    1390
98.66    1397
98.68    1390
98.7     1418
98.72    1415
98.74    1391
98.75    1407
98.78    1440
98.8     1419
98.82    1448
98.84    1470
98.86    1457
98.88    1461
98.9     1463
98.92    1447
98.93    1460
98.96    1477
98.98    1509
99.0     1506
99.02    1501
99.04    1486
99.06    1503
99.08    1496
99.1     1509
99.12    1530
99.14    1503
99.16    1546
99.18    1546
99.2     1543
99.22    1543
99.24    1571
99.25    1542
99.28    1590
99.3     1553
99.32    1586
99.34    1572
99.36    1582
99.38    1602
99.4     1574
99.42    1600
99.43    1567
99.46    1593
99.48    1624
99.5     1648
99.52    1658
99.54    1690
99.56    1644
99.58    1657
99.6     1648
99.62    1673
99.64    1679
99.66    1695
99.68    1712
99.7     1700
99.72    1712
99.74    1696
99.75    1704
99.78    1704
99.8     1755
99.82    1718
99.84    1746
99.86    1742
99.88    1766
99.9     1781
99.92    1789
99.93    1798
99.96    1774
99.98    1785
100.0    1767
100.02   1778
100.04   1797
100.06   1803
100.08   1806
100.1    1834
100.12   1841
100.14   1836
100.16   1859
100.18   1871
100.2    1833
100.22   1845
100.24   1853
100.26   1855
100.28   1875
100.3    1877
100.32   1919
100.34   1902
100.36   1879
100.38   1904
100.4    1890
100.42   1873
100.44   1912
100.46   1965
100.48   1913
100.5    1918
100.52   1944
100.54   1915
100.56   1928
100.58   1914
100.6    1940
100.62   1933
100.64   1957
100.66   1960
100.68   1962
100.7    1960
100.72   1986
100.74   1965
100.76   1985
100.78   1985
100.8    2007
100.82   1960
100.84   1976
100.86   1999
100.88   2026
100.9    2008
100.92   1959
100.94   1999
100.96   1984
100.98   2018
101.0    2028
101.02   1992
101.04   1998
101.06   1985
101.08   1971
101.1    2012
101.12   2053
101.14   2030
101.16   2063
101.18   2033
101.2    2025
101.22   2020
101.24   2015
101.26   1998
101.28   1987
101.3    1994
101.32   2057
101.34   2042
101.36   2040
101.38   2012
101.4    2035
101.42   2025
101.44   2043
101.46   2022
101.48   2024
101.5    2014
101.52   2029
101.54   2052
101.56   2044
101.58   2038
101.6    2034
101.62   2070
101.64   2046
101.66   2024
101.68   2026
101.7    2044
101.72   2026
101.74   2028
101.76   2037
101.78   2019
101.8    2002
101.82   2006
101.84   2013
101.86   2033
101.88   2015
101.9    1999
101.92   2030
101.94   1975
101.96   1987
101.98   1982
102.0    2010
102.02   1955
102.04   2009
102.06   1961
102.08   1990
102.1    2017
102.12   1978
102.14   1998
102.16   1962
102.18   1962
102.2    1964
102.22   1941
102.24   1947
102.26   1949
102.28   1964
102.3    1940
102.32   1917
102.34   1922
102.36   1891
102.38   1917
102.4    1922
102.42   1926
102.44   1937
102.46   1912
102.48   1902
102.5    1886
102.52   1875
102.54   1853
102.56   1865
102.58   1841
102.6    1881
102.62   1886
102.64   1888
102.66   1853
102.68   1845
102.7    1843
102.72   1865
102.74   1811
102.76   1820
102.78   1829
102.8    1807
102.82   1759
102.84   1756
102.86   1735
102.88   1772
102.9    1758
102.92   1766
102.94   1738
102.96   1756
102.98   1746
103.0    1756
103.02   1742
103.04   1740
103.06   1733
103.08   1700
103.1    1679
103.12   1676
103.14   1705
103.16   1706
103.18   1694
103.2    1696
103.22   1645
103.24   1681
103.26   1667
103.28   1668
103.3    1636
103.32   1616
103.34   1601
103.36   1614
103.38   1599
103.4    1584
103.42   1565
103.44   1598
103.46   1585
103.48   1546
103.5    1553
103.52   1531
103.54   1543
103.56   1539
103.58   1491
103.6    1527
103.62   1536
103.64   1535
103.66   1526
103.68   1514
103.7    1520
103.72   1475
103.74   1464
103.76   1476
103.78   1491
103.8    1462
103.82   1457
103.84   1458
103.86   1441
103.88   1429
103.9    1445
103.92   1413
103.94   1419
103.96   1423
103.98   1384
104.0    1362
104.02   1410
104.04   1404
104.06   1417
104.08   1369
104.1    1373
104.12   1363
104.14   1381
104.16   1344
104.18   1337
104.2    1331
104.22   1331
104.24   1328
104.26   1335
104.28   1306
104.3    1332
104.32   1298
104.34   1319
104.36   1307
104.38   1308
104.4    1279
104.42   1311
104.44   1301
104.46   1269
104.48   1268
104.5    1277
104.52   1261
104.54   1277
104.56   1238
104.58   1282
104.6    1233
104.62   1233
104.64   1241
104.66   1225
104.68   1231
104.7    1237
104.72   1262
104.74   1232
104.76   1221
104.78   1206
104.8    1226
104.82   1183
104.84   1193
104.86   1186
104.88   1195
104.9    1173
104.92   1165
104.94   1182
104.96   1168
104.98   1188
105.0    1176
105.02   1199
105.04   1153
105.06   1190
105.08   1169
105.1    1176
105.12   1157
105.14   1161
105.16   1156
105.18   1137
105.2    1161
105.22   1141
105.24   1133
105.26   1118
105.28   1142
105.3    1158
105.32   1118
105.34   1138
105.36   1137
105.38   1133
105.4    1145
105.42   1143
105.44   1130
105.46   1111
105.48   1085
105.5    1115
105.52   1123
105.54   1111
105.56   1094
105.58   1101
105.6    1136
105.62   1116
105.64   1096
105.66   1107
105.68   1084
105.7    1102
105.72   1101
105.74   1094
105.76   1104
105.78   1103
105.8    1105
105.82   1085
105.84   1108
105.86   1097
105.88   1093
105.9    1093
105.92   1121
105.94   1100
105.96   1105
105.98   1097
106.0    1091
106.02   1098
106.04   1098
106.06   1063
106.08   1105
106.1    1090
106.12   1117
106.14   1095
106.16   1055
106.18   1086
106.2    1080
106.22   1073
106.24   1107
106.26   1093
106.28   1092
106.3    1064
106.32   1060
106.34   1064
106.36   1058
106.38   1067
106.4    1098
106.42   1093
106.44   1100
106.46   1105
106.48   1072
106.5    1098
106.52   1067
106.54   1115
106.56   1105
106.58   1077
106.6    1095
106.62   1086
106.64   1103
106.66   1104
106.68   1095
106.7    1097
106.72   1092
106.74   1100
106.76   1108
106.78   1096
106.8    1117
106.82   1085
106.84   1105
106.86   1099
106.88   1088
106.9    1093
106.92   1093
106.94   1122
106.96   1103
106.98   1103
107.0    1100
107.02   1121
107.04   1079
107.06   1072
107.08   1106
107.1    1081
107.12   1093
107.14   1083
107.16   1082
107.18   1100
107.2    1102
107.22   1119
107.24   1099
107.26   1081
107.28   1107
107.3    1077
107.32   1102
107.34   1110
107.36   1110
107.38   1100
107.4    1146
107.42   1106
107.44   1094
107.46   1118
107.48   1126
107.5    1095
107.52   1112
107.54   1139
107.56   1135
107.58   1091
107.6    1092
107.62   1118
107.64   1122
107.66   1115
107.68   1127
107.7    1114
107.72   1102
107.74   1124
107.76   1118
107.78   1126
107.8    1140
107.82   1140
107.84   1146
107.86   1157
107.88   1155
107.9    1146
107.92   1167
107.94   1148
107.96   1187
107.98   1167
108.0    1156
108.02   1131
108.04   1145
108.06   1156
108.08   1169
108.1    1170
108.12   1189
108.14   1168
108.16   1166
108.18   1166
108.2    1175
108.22   1166
108.24   1162
108.26   1187
108.28   1187
108.3    1160
108.32   1171
108.34   1170
108.36   1190
108.38   1190
108.4    1198
108.42   1190
108.44   1189
108.46   1199
108.48   1229
108.5    1203
108.52   1222
108.54   1179
108.56   1184
108.58   1206
108.6    1214
108.62   1235
108.64   1207
108.66   1252
108.68   1244
108.7    1235
108.72   1236
108.74   1220
108.76   1248
108.78   1247
108.8    1241
108.82   1231
108.84   1224
108.86   1261
108.88   1234
108.9    1265
108.92   1270
108.94   1272
108.96   1293
108.98   1290
109.0    1272
109.02   1286
109.04   1309
109.06   1292
109.08   1306
109.1    1272
109.12   1276
109.14   1289
109.16   1286
109.18   1302
109.2    1332
109.22   1298
109.24   1302
109.26   1297
109.28   1309
109.3    1320
109.32   1309
109.34   1302
109.36   1335
109.38   1312
109.4    1343
109.42   1320
109.44   1280
109.46   1325
109.48   1335
109.5    1360
109.52   1337
109.54   1333
109.56   1349
109.58   1344
109.6    1348
109.62   1334
109.64   1358
109.66   1333
109.68   1343
109.7    1363
109.72   1347
109.74   1351
109.76   1337
109.78   1356
109.8    1355
109.82   1370
109.84   1337
109.86   1365
109.88   1370
109.9    1383
109.92   1372
109.94   1375
109.96   1362
109.98   1357
110.0    1402
110.02   1379
110.04   1357
110.06   1367
110.08   1395
110.1    1375
110.12   1385
110.14   1382
110.16   1384
110.18   1401
110.2    1382
110.22   1341
110.24   1375
110.26   1360
110.28   1354
110.3    1376
110.32   1388
110.34   1385
110.36   1391
110.38   1363
110.4    1416
110.42   1388
110.44   1415
110.46   1390
110.48   1401
110.5    1389
110.52   1410
110.54   1408
110.56   1377
110.58   1387
110.6    1411
110.62   1379
110.64   1375
110.66   1392
110.68   1394
110.7    1371
110.72   1381
110.74   1368
110.76   1364
110.78   1349
110.8    1371
110.82   1386
110.84   1358
110.86   1325
110.88   1367
110.9    1360
110.92   1394
110.94   1370
110.96   1369
110.98   1349
111.0    1353
111.02   1333
111.04   1348
111.06   1371
111.08   1353
111.1    1372
111.12   1373
111.14   1337
111.16   1367
111.18   1351
111.2    1355
111.22   1358
111.24   1325
111.26   1344
111.28   1327
111.3    1339
111.32   1327
111.34   1319
111.36   1297
111.38   1327
111.4    1327
111.42   1347
111.44   1327
111.46   1344
111.48   1320
111.5    1307
111.52   1323
111.54   1311
111.56   1334
111.58   1298
111.6    1296
111.62   1272
111.64   1302
111.66   1271
111.68   1303
111.7    1292
111.72   1310
111.74   1297
111.76   1312
111.78   1288
111.8    1274
111.82   1288
111.84   1268
111.86   1275
111.88   1279
111.9    1298
111.92   1255
111.94   1254
111.96   1247
111.98   1269
112.0    1263
112.02   1281
112.04   1280
112.06   1283
112.08   1260
112.1    1277
112.12   1248
112.14   1240
112.16   1272
112.18   1238
112.2    1241
112.22   1216
112.24   1229
112.26   1222
112.28   1239
112.3    1213
112.32   1241
112.34   1230
112.36   1237
112.38   1218
112.4    1220
112.42   1232
112.44   1224
112.46   1227
112.48   1208
112.5    1207
112.52   1193
112.54   1185
112.56   1193
112.58   1210
112.6    1218
112.62   1238
112.64   1211
112.66   1223
112.68   1226
112.7    1224
112.72   1183
112.74   1185
112.76   1204
112.78   1195
112.8    1194
112.82   1211
112.84   1194
112.86   1178
112.88   1173
112.9    1200
112.92   1172
112.94   1202
112.96   1175
112.98   1187
113.0    1180
113.02   1176
113.04   1183
113.06   1177
113.08   1169
113.1    1180
113.12   1193
113.14   1202
113.16   1185
113.18   1220
113.2    1197
113.22   1178
113.24   1159
113.26   1153
113.28   1165
113.3    1184
113.32   1200
113.34   1195
113.36   1199
113.38   1170
113.4    1166
113.42   1193
113.44   1166
113.46   1184
113.48   1177
113.5    1182
113.52   1167
113.54   1189
113.56   1165
113.58   1173
113.6    1164
113.62   1169
113.64   1187
113.66   1192
113.68   1221
113.7    1176
113.72   1168
113.74   1147
113.76   1168
113.78   1163
113.8    1207
113.82   1203
113.84   1186
113.86   1204
113.88   1176
113.9    1187
113.92   1195
113.94   1160
113.96   1214
113.98   1213
114.0    1180
114.02   1197
114.04   1190
114.06   1211
114.08   1202
114.1    1199
114.12   1216
114.14   1199
114.16   1203
114.18   1214
114.2    1192
114.22   1191
114.24   1199
114.26   1216
114.28   1216
114.3    1207
114.32   1223
114.34   1240
114.36   1233
114.38   1228
114.4    1222
114.42   1208
114.44   1207
114.46   1222
114.48   1228
114.5    1246
114.52   1239
114.54   1242
114.56   1246
114.58   1245
114.6    1253
114.62   1220
114.64   1235
114.66   1257
114.68   1240
114.7    1250
114.72   1248
114.74   1270
114.76   1245
114.78   1262
114.8    1260
114.82   1259
114.84   1258
114.86   1254
114.88   1278
114.9    1257
114.92   1250
114.94   1268
114.96   1236
114.98   1250
115.0    1259
115.02   1279
115.04   1256
115.06   1281
115.08   1280
115.1    1316
115.12   1294
115.14   1304
115.16   1279
115.18   1277
115.2    1264
115.22   1315
115.24   1327
115.26   1299
115.28   1295
115.3    1310
115.32   1310
115.34   1333
115.36   1341
115.38   1310
115.4    1297
115.42   1316
115.44   1329
115.46   1338
115.48   1353
115.5    1326
115.52   1353
115.54   1352
115.56   1341
115.58   1365
115.6    1350
115.62   1365
115.64   1352
115.66   1357
115.68   1349
115.7    1374
115.72   1366
115.74   1375
115.76   1335
115.78   1337
115.8    1377
115.82   1372
115.84   1357
115.86   1382
115.88   1396
115.9    1370
115.92   1353
115.94   1369
115.96   1382
115.98   1397
116.0    1402
116.02   1418
116.04   1399
116.06   1400
116.08   1403
116.1    1439
116.12   1438
116.14   1403
116.16   1405
116.18   1428
116.2    1401
116.22   1432
116.24   1407
116.26   1400
116.28   1412
116.3    1435
116.32   1434
116.34   1422
116.36   1400
116.38   1443
116.4    1454
116.42   1453
116.44   1459
116.46   1422
116.48   1448
116.5    1455
116.52   1445
116.54   1455
116.56   1416
116.58   1466
116.6    1459
116.62   1456
116.64   1486
116.66   1449
116.68   1434
116.7    1456
116.72   1504
116.74   1454
116.76   1460
116.78   1498
116.8    1502
116.82   1500
116.84   1519
116.86   1481
116.88   1469
116.9    1492
116.92   1504
116.94   1510
116.96   1486
116.98   1523
117.0    1506
117.02   1477
117.04   1498
117.06   1507
117.08   1510
117.1    1518
117.12   1509
117.14   1511
117.16   1527
117.18   1558
117.2    1503
117.22   1507
117.24   1524
117.26   1533
117.28   1528
117.3    1530
117.32   1549
117.34   1554
117.36   1564
117.38   1542
117.4    1520
117.42   1505
117.44   1516
117.46   1537
117.48   1527
117.5    1547
117.52   1522
117.54   1523
117.56   1543
117.58   1553
117.6    1544
117.62   1558
117.64   1524
117.66   1545
117.68   1543
117.7    1509
117.72   1546
117.74   1568
117.76   1518
117.78   1519
117.8    1530
117.82   1535
117.84   1562
117.86   1549
117.88   1552
117.9    1550
117.92   1541
117.94   1558
117.96   1557
117.98   1529
118.0    1533
118.02   1550
118.04   1539
118.06   1558
118.08   1523
118.1    1510
118.12   1527
118.14   1540
118.16   1552
118.18   1530
118.2    1564
118.22   1526
118.24   1523
118.26   1531
118.28   1543
118.3    1538
118.32   1543
118.34   1550
118.36   1547
118.38   1527
118.4    1520
118.42   1524
118.44   1542
118.46   1524
118.48   1514
118.5    1525
118.52   1533
118.54   1519
118.56   1531
118.58   1508
118.6    1547
118.62   1540
118.64   1526
118.66   1525
118.68   1524
118.7    1496
118.72   1527
118.74   1512
118.76   1488
118.78   1511
118.8    1500
118.82   1505
118.84   1526
118.86   1530
118.88   1500
118.9    1531
118.92   1502
118.94   1498
118.96   1485
118.98   1495
119.0    1483
119.02   1485
119.04   1479
119.06   1534
119.08   1502
119.1    1507
119.12   1495
119.14   1492
119.16   1489
119.18   1470
119.2    1506
119.22   1472
119.24   1488
119.26   1463
119.28   1471
119.3    1478
119.32   1476
119.34   1473
119.36   1454
119.38   1482
119.4    1490
119.42   1452
119.44   1469
119.46   1474
119.48   1457
119.5    1448
119.52   1466
119.54   1486
119.56   1457
119.58   1438
119.6    1411
119.62   1449
119.64   1438
119.66   1426
119.68   1429
119.7    1444
119.72   1422
119.74   1453
119.76   1453
119.78   1479
119.8    1417
119.82   1435
119.84   1395
119.86   1431
119.88   1448
119.9    1440
119.92   1438
119.94   1414
119.96   1423
119.98   1399
120.0    1429
