#PbSOA_5nm_tol_130420 - Default scan
20.0     2362
20.02    2347
20.04    2396
20.06    2372
20.08    2356
20.1     2337
20.12    2329
20.14    2349
20.16    2389
20.18    2441
20.2     2382
20.22    2353
20.24    2349
20.26    2339
20.28    2391
20.3     2377
20.32    2423
20.34    2410
20.36    2415
20.38    2455
20.4     2398
20.42    2377
20.44    2406
20.46    2384
20.48    2381
20.5     2407
20.52    2401
20.54    2399
20.56    2398
20.58    2419
20.6     2381
20.62    2345
20.64    2376
20.66    2362
20.68    2344
20.7     2401
20.72    2404
20.74    2386
20.76    2386
20.78    2402
20.8     2437
20.82    2428
20.84    2420
20.86    2394
20.88    2357
20.9     2407
20.92    2460
20.94    2451
20.96    2451
20.98    2470
21.0     2412
21.02    2360
21.04    2378
21.06    2407
21.08    2405
21.1     2401
21.12    2449
21.14    2463
21.16    2392
21.18    2398
21.2     2430
21.22    2476
21.24    2422
21.26    2391
21.28    2441
21.3     2409
21.32    2365
21.34    2372
21.36    2393
21.38    2393
21.4     2384
21.42    2445
21.44    2474
21.46    2407
21.48    2402
21.5     2407
21.52    2427
21.54    2384
21.56    2348
21.58    2369
21.6     2404
21.62    2406
21.64    2391
21.66    2414
21.68    2370
21.7     2343
21.72    2329
21.74    2314
21.76    2366
21.78    2371
21.8     2341
21.82    2362
21.84    2482
21.86    2453
21.88    2444
21.9     2499
21.92    2471
21.94    2505
21.96    2460
21.98    2419
22.0     2386
22.02    2395
22.04    2412
22.06    2425
22.08    2415
22.1     2390
22.12    2365
22.14    2377
22.16    2431
22.18    2455
22.2     2429
22.22    2437
22.24    2426
22.26    2420
22.28    2398
22.3     2458
22.32    2511
22.34    2511
22.36    2470
22.38    2433
22.4     2460
22.42    2494
22.44    2503
22.46    2524
22.48    2529
22.5     2528
22.52    2459
22.54    2520
22.56    2577
22.58    2563
22.6     2508
22.62    2469
22.64    2515
22.66    2528
22.68    2530
22.7     2573
22.72    2667
22.74    2633
22.76    2643
22.78    2575
22.8     2568
22.82    2635
22.84    2655
22.86    2620
22.88    2624
22.9     2726
22.92    2660
22.94    2644
22.96    2659
22.98    2656
23.0     2695
23.02    2688
23.04    2724
23.06    2678
23.08    2691
23.1     2799
23.12    2750
23.14    2728
23.16    2703
23.18    2754
23.2     2742
23.22    2773
23.24    2729
23.26    2785
23.28    2767
23.3     2764
23.32    2667
23.34    2662
23.36    2702
23.38    2773
23.4     2776
23.42    2747
23.44    2808
23.46    2761
23.48    2785
23.5     2824
23.52    2786
23.54    2809
23.56    2791
23.58    2702
23.6     2644
23.62    2737
23.64    2726
23.66    2788
23.68    2762
23.7     2749
23.72    2734
23.74    2733
23.76    2814
23.78    2885
23.8     2824
23.82    2806
23.84    2833
23.86    2878
23.88    2876
23.9     2882
23.92    2873
23.94    2957
23.96    2874
23.98    2866
24.0     2869
24.02    2856
24.04    2833
24.06    2920
24.08    2990
24.1     3002
24.12    3008
24.14    3057
24.16    3103
24.18    3043
24.2     3063
24.22    3206
24.24    3178
24.26    3229
24.28    3298
24.3     3329
24.32    3406
24.34    3409
24.36    3457
24.38    3609
24.4     3642
24.42    3659
24.44    3657
24.46    3706
24.48    3835
24.5     3948
24.52    3979
24.54    4058
24.56    4137
24.58    4187
24.6     4252
24.62    4398
24.64    4438
24.66    4539
24.68    4657
24.7     4826
24.72    4836
24.74    4896
24.76    4981
24.78    5136
24.8     5175
24.82    5242
24.84    5529
24.86    5541
24.88    5574
24.9     5785
24.92    5917
24.94    6063
24.96    6132
24.98    6217
25.0     6433
25.02    6523
25.04    6614
25.06    6748
25.08    6916
25.1     7036
25.12    7197
25.14    7268
25.16    7349
25.18    7529
25.2     7668
25.22    7856
25.24    8010
25.26    8200
25.28    8359
25.3     8450
25.32    8529
25.34    8625
25.36    8786
25.38    8939
25.4     9071
25.42    9022
25.44    9149
25.46    9297
25.48    9495
25.5     9646
25.52    9552
25.54    9796
25.56    9887
25.58    9986
25.6     10016
25.62    10179
25.64    10331
25.66    10288
25.68    10407
25.7     10455
25.72    10503
25.74    10568
25.76    10640
25.78    10854
25.8     10851
25.82    10845
25.84    10860
25.86    11022
25.88    10942
25.9     10895
25.92    10959
25.94    11051
25.96    11186
25.98    11147
26.0     11089
26.02    11072
26.04    11094
26.06    11054
26.08    11092
26.1     11086
26.12    11239
26.14    11114
26.16    10969
26.18    10872
26.2     10839
26.22    10924
26.24    10890
26.26    10750
26.28    10695
26.3     10534
26.32    10564
26.34    10569
26.36    10453
26.38    10487
26.4     10377
26.42    10277
26.44    10176
26.46    10133
26.48    10026
26.5     10060
26.52    9931
26.54    9773
26.56    9603
26.58    9566
26.6     9401
26.62    9316
26.64    9282
26.66    9266
26.68    9044
26.7     8900
26.72    8830
26.74    8752
26.76    8552
26.78    8464
26.8     8336
26.82    8180
26.84    8167
26.86    7984
26.88    7898
26.9     7796
26.92    7792
26.94    7553
26.96    7529
26.98    7319
27.0     7290
27.02    7074
27.04    6979
27.06    6885
27.08    6847
27.1     6658
27.12    6537
27.14    6508
27.16    6421
27.18    6264
27.2     6197
27.22    6188
27.24    6059
27.26    5935
27.28    5768
27.3     5645
27.32    5640
27.34    5629
27.36    5445
27.38    5393
27.4     5347
27.42    5300
27.44    5147
27.46    5128
27.48    5027
27.5     4950
27.52    4968
27.54    4929
27.56    4875
27.58    4828
27.6     4716
27.62    4613
27.64    4623
27.66    4616
27.68    4500
27.7     4514
27.72    4517
27.74    4484
27.76    4432
27.78    4327
27.8     4355
27.82    4303
27.84    4218
27.86    4273
27.88    4320
27.9     4236
27.92    4284
27.94    4297
27.96    4157
27.98    4209
28.0     4192
28.02    4241
28.04    4275
28.06    4225
28.08    4250
28.1     4409
28.12    4466
28.14    4449
28.16    4464
28.18    4501
28.2     4524
28.22    4426
28.24    4485
28.26    4570
28.28    4604
28.3     4749
28.32    4812
28.34    4834
28.36    4891
28.38    4900
28.4     4943
28.42    5093
28.44    5129
28.46    5203
28.48    5306
28.5     5328
28.52    5422
28.54    5560
28.56    5635
28.58    5703
28.6     5781
28.62    5864
28.64    6006
28.66    6124
28.68    6293
28.7     6296
28.72    6309
28.74    6541
28.76    6606
28.78    6725
28.8     6818
28.82    6934
28.84    7085
28.86    7207
28.88    7350
28.9     7426
28.92    7605
28.94    7767
28.96    7829
28.98    7883
29.0     8078
29.02    8169
29.04    8430
29.06    8485
29.08    8578
29.1     8750
29.12    8872
29.14    8918
29.16    9019
29.18    9214
29.2     9438
29.22    9545
29.24    9784
29.26    9885
29.28    10061
29.3     10185
29.32    10362
29.34    10418
29.36    10548
29.38    10822
29.4     10935
29.42    10992
29.44    11077
29.46    11078
29.48    11248
29.5     11485
29.52    11576
29.54    11724
29.56    11905
29.58    11854
29.6     11896
29.62    11935
29.64    11966
29.66    12066
29.68    12300
29.7     12507
29.72    12623
29.74    12555
29.76    12589
29.78    12588
29.8     12585
29.82    12777
29.84    12863
29.86    12850
29.88    12787
29.9     12966
29.92    13037
29.94    13084
29.96    13097
29.98    13110
30.0     13115
30.02    13107
30.04    13133
30.06    13063
30.08    13094
30.1     12967
30.12    12973
30.14    13097
30.16    13046
30.18    13078
30.2     12882
30.22    12706
30.24    12738
30.26    12746
30.28    12662
30.3     12598
30.32    12466
30.34    12398
30.36    12110
30.38    12062
30.4     11858
30.42    11843
30.44    11733
30.46    11661
30.48    11611
30.5     11478
30.52    11291
30.54    11167
30.56    11089
30.58    10993
30.6     10813
30.62    10559
30.64    10608
30.66    10442
30.68    10293
30.7     10093
30.72    9790
30.74    9603
30.76    9511
30.78    9540
30.8     9484
30.82    9299
30.84    9014
30.86    8726
30.88    8693
30.9     8531
30.92    8481
30.94    8378
30.96    8210
30.98    8047
31.0     7858
31.02    7525
31.04    7436
31.06    7338
31.08    7202
31.1     7107
31.12    6946
31.14    6809
31.16    6812
31.18    6606
31.2     6437
31.22    6254
31.24    6109
31.26    6002
31.28    5834
31.3     5743
31.32    5634
31.34    5531
31.36    5315
31.38    5292
31.4     5224
31.42    5162
31.44    5011
31.46    4913
31.48    4841
31.5     4639
31.52    4630
31.54    4462
31.56    4462
31.58    4334
31.6     4259
31.62    4207
31.64    4098
31.66    4100
31.68    4072
31.7     4013
31.72    3882
31.74    3884
31.76    3783
31.78    3766
31.8     3640
31.82    3631
31.84    3576
31.86    3429
31.88    3480
31.9     3435
31.92    3354
31.94    3268
31.96    3336
31.98    3276
32.0     3275
32.02    3221
32.04    3279
32.06    3204
32.08    3083
32.1     3091
32.12    3044
32.14    3115
32.16    3022
32.18    2992
32.2     2924
32.22    3026
32.24    2957
32.26    2947
32.28    2937
32.3     2962
32.32    2988
32.34    2901
32.36    2959
32.38    2959
32.4     2929
32.42    2843
32.44    2866
32.46    2840
32.48    2808
32.5     2832
32.52    2868
32.54    2802
32.56    2774
32.58    2848
32.6     2787
32.62    2804
32.64    2769
32.66    2807
32.68    2747
32.7     2771
32.72    2808
32.74    2693
32.76    2776
32.78    2832
32.8     2832
32.82    2849
32.84    2747
32.86    2781
32.88    2743
32.9     2758
32.92    2681
32.94    2756
32.96    2719
32.98    2760
33.0     2753
33.02    2765
33.04    2755
33.06    2678
33.08    2722
33.1     2690
33.12    2613
33.14    2581
33.16    2719
33.18    2704
33.2     2616
33.22    2602
33.24    2598
33.26    2602
33.28    2542
33.3     2572
33.32    2594
33.34    2543
33.36    2562
33.38    2623
33.4     2485
33.42    2528
33.44    2546
33.46    2567
33.48    2546
33.5     2580
33.52    2487
33.54    2470
33.56    2474
33.58    2491
33.6     2454
33.62    2449
33.64    2447
33.66    2478
33.68    2482
33.7     2500
33.72    2419
33.74    2403
33.76    2411
33.78    2442
33.8     2417
33.82    2396
33.84    2411
33.86    2425
33.88    2422
33.9     2423
33.92    2389
33.94    2375
33.96    2332
33.98    2361
34.0     2319
34.02    2390
34.04    2345
34.06    2420
34.08    2481
34.1     2406
34.12    2380
34.14    2433
34.16    2362
34.18    2371
34.2     2366
34.22    2349
34.24    2319
34.26    2271
34.28    2370
34.3     2409
34.32    2381
34.34    2288
34.36    2305
34.38    2382
34.4     2262
34.42    2248
34.44    2328
34.46    2291
34.48    2270
34.5     2339
34.52    2351
34.54    2286
34.56    2299
34.58    2296
34.6     2378
34.62    2375
34.64    2292
34.66    2276
34.68    2302
34.7     2388
34.72    2340
34.74    2285
34.76    2249
34.78    2251
34.8     2262
34.82    2275
34.84    2280
34.86    2268
34.88    2297
34.9     2266
34.92    2234
34.94    2247
34.96    2333
34.98    2306
35.0     2191
35.02    2177
35.04    2325
35.06    2253
35.08    2199
35.1     2259
35.12    2268
35.14    2269
35.16    2275
35.18    2327
35.2     2266
35.22    2258
35.24    2243
35.26    2270
35.28    2169
35.3     2217
35.32    2257
35.34    2198
35.36    2217
35.38    2235
35.4     2244
35.42    2177
35.44    2201
35.46    2222
35.48    2210
35.5     2162
35.52    2134
35.54    2183
35.56    2204
35.58    2221
35.6     2137
35.62    2198
35.64    2206
35.66    2175
35.68    2154
35.7     2175
35.72    2231
35.74    2210
35.76    2259
35.78    2220
35.8     2120
35.82    2252
35.84    2211
35.86    2226
35.88    2217
35.9     2190
35.92    2241
35.94    2180
35.96    2186
35.98    2197
36.0     2242
36.02    2188
36.04    2144
36.06    2205
36.08    2217
36.1     2195
36.12    2165
36.14    2193
36.16    2144
36.18    2169
36.2     2204
36.22    2120
36.24    2171
36.26    2146
36.28    2102
36.3     2141
36.32    2170
36.34    2303
36.36    2150
36.38    2135
36.4     2137
36.42    2181
36.44    2111
36.46    2088
36.48    2148
36.5     2129
36.52    2165
36.54    2171
36.56    2230
36.58    2198
36.6     2221
36.62    2166
36.64    2127
36.66    2170
36.68    2108
36.7     2172
36.72    2137
36.74    2082
36.76    2115
36.78    2158
36.8     2151
36.82    2129
36.84    2146
36.86    2167
36.88    2157
36.9     2132
36.92    2154
36.94    2144
36.96    2129
36.98    2129
37.0     2088
37.02    2145
37.04    2166
37.06    2149
37.08    2094
37.1     2101
37.12    2135
37.14    2086
37.16    2143
37.18    2151
37.2     2266
37.22    2139
37.24    2131
37.26    2143
37.28    2113
37.3     2150
37.32    2188
37.34    2172
37.36    2113
37.38    2036
37.4     2120
37.42    2200
37.44    2142
37.46    2193
37.48    2186
37.5     2172
37.52    2147
37.54    2146
37.56    2193
37.58    2131
37.6     2136
37.62    2225
37.64    2132
37.66    2155
37.68    2229
37.7     2189
37.72    2231
37.74    2063
37.76    2120
37.78    2171
37.8     2230
37.82    2145
37.84    2119
37.86    2158
37.88    2191
37.9     2162
37.92    2112
37.94    2213
37.96    2202
37.98    2167
38.0     2193
38.02    2201
38.04    2191
38.06    2203
38.08    2170
38.1     2181
38.12    2172
38.14    2258
38.16    2090
38.18    2179
38.2     2205
38.22    2200
38.24    2212
38.26    2136
38.28    2163
38.3     2174
38.32    2164
38.34    2170
38.36    2230
38.38    2235
38.4     2211
38.42    2235
38.44    2206
38.46    2209
38.48    2251
38.5     2165
38.52    2232
38.54    2226
38.56    2187
38.58    2235
38.6     2256
38.62    2220
38.64    2176
38.66    2181
38.68    2235
38.7     2199
38.72    2242
38.74    2283
38.76    2231
38.78    2232
38.8     2206
38.82    2203
38.84    2189
38.86    2252
38.88    2270
38.9     2239
38.92    2326
38.94    2277
38.96    2298
38.98    2267
39.0     2257
39.02    2265
39.04    2291
39.06    2274
39.08    2258
39.1     2353
39.12    2297
39.14    2248
39.16    2200
39.18    2249
39.2     2283
39.22    2299
39.24    2347
39.26    2274
39.28    2321
39.3     2296
39.32    2251
39.34    2291
39.36    2379
39.38    2424
39.4     2403
39.42    2388
39.44    2398
39.46    2334
39.48    2356
39.5     2333
39.52    2310
39.54    2400
39.56    2358
39.58    2388
39.6     2432
39.62    2419
39.64    2408
39.66    2451
39.68    2458
39.7     2469
39.72    2366
39.74    2477
39.76    2478
39.78    2480
39.8     2448
39.82    2452
39.84    2511
39.86    2426
39.88    2465
39.9     2463
39.92    2463
39.94    2452
39.96    2458
39.98    2495
40.0     2473
40.02    2419
40.04    2591
40.06    2465
40.08    2483
40.1     2435
40.12    2485
40.14    2436
40.16    2551
40.18    2455
40.2     2499
40.22    2481
40.24    2508
40.26    2485
40.28    2532
40.3     2455
40.32    2495
40.34    2590
40.36    2542
40.38    2580
40.4     2590
40.42    2481
40.44    2502
40.46    2564
40.48    2508
40.5     2535
40.52    2492
40.54    2617
40.56    2541
40.58    2576
40.6     2603
40.62    2651
40.64    2550
40.66    2592
40.68    2658
40.7     2693
40.72    2702
40.74    2727
40.76    2730
40.78    2802
40.8     2759
40.82    2839
40.84    2857
40.86    2873
40.88    2924
40.9     2908
40.92    2952
40.94    2987
40.96    2990
40.98    3093
41.0     3175
41.02    3184
41.04    3205
41.06    3253
41.08    3318
41.1     3382
41.12    3452
41.14    3477
41.16    3530
41.18    3627
41.2     3657
41.22    3736
41.24    3768
41.26    3928
41.28    4116
41.3     4063
41.32    4100
41.34    4112
41.36    4258
41.38    4349
41.4     4521
41.42    4538
41.44    4715
41.46    4644
41.48    4808
41.5     4805
41.52    5132
41.54    5280
41.56    5269
41.58    5344
41.6     5384
41.62    5506
41.64    5685
41.66    5849
41.68    5878
41.7     6039
41.72    6211
41.74    6378
41.76    6569
41.78    6675
41.8     6701
41.82    6792
41.84    6974
41.86    7156
41.88    7357
41.9     7512
41.92    7720
41.94    7709
41.96    7830
41.98    8011
42.0     8105
42.02    8168
42.04    8404
42.06    8572
42.08    8643
42.1     8977
42.12    9165
42.14    9046
42.16    9528
42.18    9376
42.2     9401
42.22    9705
42.24    9880
42.26    10105
42.28    10145
42.3     10284
42.32    10365
42.34    10511
42.36    10664
42.38    10846
42.4     10979
42.42    11100
42.44    11296
42.46    11336
42.48    11472
42.5     11485
42.52    11680
42.54    11748
42.56    11853
42.58    11949
42.6     11991
42.62    12085
42.64    12200
42.66    12308
42.68    12238
42.7     12426
42.72    12481
42.74    12737
42.76    12672
42.78    12650
42.8     12724
42.82    12770
42.84    12902
42.86    12663
42.88    12867
42.9     13150
42.92    12951
42.94    13097
42.96    13008
42.98    13103
43.0     13083
43.02    12905
43.04    13047
43.06    13012
43.08    13023
43.1     12942
43.12    12960
43.14    12771
43.16    12895
43.18    12942
43.2     12850
43.22    12828
43.24    12769
43.26    12639
43.28    12605
43.3     12554
43.32    12527
43.34    12458
43.36    12251
43.38    12470
43.4     12162
43.42    12058
43.44    11986
43.46    11786
43.48    11781
43.5     11630
43.52    11482
43.54    11387
43.56    11246
43.58    11295
43.6     11211
43.62    10920
43.64    10897
43.66    10692
43.68    10469
43.7     10456
43.72    10536
43.74    10359
43.76    10182
43.78    9959
43.8     9762
43.82    9655
43.84    9612
43.86    9457
43.88    9409
43.9     9197
43.92    9147
43.94    8888
43.96    8712
43.98    8562
44.0     8441
44.02    8419
44.04    8186
44.06    8060
44.08    7937
44.1     7568
44.12    7408
44.14    7531
44.16    7251
44.18    7205
44.2     7016
44.22    6995
44.24    6770
44.26    6771
44.28    6596
44.3     6484
44.32    6302
44.34    6138
44.36    6031
44.38    5959
44.4     5799
44.42    5725
44.44    5572
44.46    5523
44.48    5231
44.5     5260
44.52    5226
44.54    5078
44.56    5002
44.58    4833
44.6     4754
44.62    4656
44.64    4636
44.66    4535
44.68    4413
44.7     4203
44.72    4194
44.74    4107
44.76    4059
44.78    3933
44.8     3943
44.82    3889
44.84    3753
44.86    3663
44.88    3629
44.9     3509
44.92    3515
44.94    3505
44.96    3309
44.98    3331
45.0     3307
45.02    3217
45.04    3215
45.06    3158
45.08    3169
45.1     3122
45.12    3063
45.14    3058
45.16    3014
45.18    2919
45.2     2886
45.22    2923
45.24    2920
45.26    2883
45.28    2851
45.3     2885
45.32    2808
45.34    2819
45.36    2793
45.38    2719
45.4     2704
45.42    2667
45.44    2654
45.46    2672
45.48    2677
45.5     2643
45.52    2602
45.54    2650
45.56    2627
45.58    2667
45.6     2563
45.62    2549
45.64    2520
45.66    2501
45.68    2470
45.7     2542
45.72    2547
45.74    2550
45.76    2503
45.78    2464
45.8     2508
45.82    2536
45.84    2539
45.86    2524
45.88    2520
45.9     2555
45.92    2488
45.94    2537
45.96    2494
45.98    2412
46.0     2451
46.02    2514
46.04    2473
46.06    2502
46.08    2513
46.1     2491
46.12    2501
46.14    2446
46.16    2431
46.18    2435
46.2     2424
46.22    2394
46.24    2444
46.26    2410
46.28    2305
46.3     2332
46.32    2419
46.34    2406
46.36    2337
46.38    2421
46.4     2396
46.42    2470
46.44    2382
46.46    2341
46.48    2353
46.5     2277
46.52    2396
46.54    2388
46.56    2384
46.58    2446
46.6     2399
46.62    2355
46.64    2384
46.66    2305
46.68    2362
46.7     2338
46.72    2315
46.74    2332
46.76    2360
46.78    2366
46.8     2298
46.82    2313
46.84    2380
46.86    2364
46.88    2361
46.9     2355
46.92    2346
46.94    2293
46.96    2309
46.98    2324
47.0     2361
47.02    2344
47.04    2322
47.06    2334
47.08    2357
47.1     2339
47.12    2250
47.14    2337
47.16    2215
47.18    2295
47.2     2260
47.22    2291
47.24    2403
47.26    2354
47.28    2328
47.3     2304
47.32    2304
47.34    2288
47.36    2265
47.38    2250
47.4     2288
47.42    2307
47.44    2296
47.46    2293
47.48    2368
47.5     2312
47.52    2344
47.54    2445
47.56    2318
47.58    2370
47.6     2343
47.62    2298
47.64    2305
47.66    2318
47.68    2395
47.7     2375
47.72    2347
47.74    2332
47.76    2366
47.78    2302
47.8     2336
47.82    2294
47.84    2299
47.86    2349
47.88    2372
47.9     2437
47.92    2452
47.94    2395
47.96    2393
47.98    2431
48.0     2333
48.02    2411
48.04    2328
48.06    2328
48.08    2329
48.1     2404
48.12    2391
48.14    2367
48.16    2400
48.18    2391
48.2     2389
48.22    2345
48.24    2357
48.26    2353
48.28    2377
48.3     2335
48.32    2365
48.34    2365
48.36    2358
48.38    2387
48.4     2348
48.42    2335
48.44    2367
48.46    2419
48.48    2439
48.5     2364
48.52    2397
48.54    2327
48.56    2366
48.58    2399
48.6     2390
48.62    2406
48.64    2374
48.66    2399
48.68    2382
48.7     2383
48.72    2334
48.74    2365
48.76    2474
48.78    2429
48.8     2476
48.82    2460
48.84    2489
48.86    2450
48.88    2399
48.9     2494
48.92    2485
48.94    2407
48.96    2546
48.98    2513
49.0     2461
49.02    2524
49.04    2607
49.06    2612
49.08    2620
49.1     2657
49.12    2566
49.14    2685
49.16    2710
49.18    2721
49.2     2744
49.22    2781
49.24    2819
49.26    2843
49.28    2757
49.3     2873
49.32    2821
49.34    2924
49.36    2953
49.38    2974
49.4     2974
49.42    3093
49.44    3107
49.46    3090
49.48    3103
49.5     3172
49.52    3215
49.54    3292
49.56    3275
49.58    3313
49.6     3401
49.62    3476
49.64    3455
49.66    3528
49.68    3529
49.7     3546
49.72    3619
49.74    3729
49.76    3881
49.78    3871
49.8     3852
49.82    3920
49.84    4061
49.86    3966
49.88    4148
49.9     3973
49.92    4229
49.94    4154
49.96    4114
49.98    4296
50.0     4177
50.02    4356
50.04    4430
50.06    4433
50.08    4452
50.1     4544
50.12    4605
50.14    4643
50.16    4677
50.18    4618
50.2     4801
50.22    4835
50.24    4806
50.26    4940
50.28    5000
50.3     4906
50.32    5134
50.34    5196
50.36    5092
50.38    5121
50.4     5290
50.42    5080
50.44    5190
50.46    5296
50.48    5360
50.5     5307
50.52    5483
50.54    5498
50.56    5537
50.58    5511
50.6     5495
50.62    5393
50.64    5501
50.66    5602
50.68    5523
50.7     5578
50.72    5628
50.74    5674
50.76    5578
50.78    5556
50.8     5521
50.82    5601
50.84    5723
50.86    5669
50.88    5567
50.9     5681
50.92    5715
50.94    5670
50.96    5664
50.98    5590
51.0     5714
51.02    5652
51.04    5652
51.06    5725
51.08    5580
51.1     5500
51.12    5494
51.14    5501
51.16    5662
51.18    5551
51.2     5494
51.22    5398
51.24    5474
51.26    5556
51.28    5405
51.3     5405
51.32    5430
51.34    5343
51.36    5323
51.38    5281
51.4     5269
51.42    5172
51.44    5248
51.46    5186
51.48    5157
51.5     5141
51.52    4997
51.54    5055
51.56    5021
51.58    4969
51.6     4936
51.62    4933
51.64    4762
51.66    4817
51.68    4863
51.7     4744
51.72    4837
51.74    4734
51.76    4686
51.78    4692
51.8     4635
51.82    4642
51.84    4690
51.86    4530
51.88    4580
51.9     4576
51.92    4485
51.94    4552
51.96    4458
51.98    4542
52.0     4458
52.02    4527
52.04    4424
52.06    4402
52.08    4296
52.1     4468
52.12    4364
52.14    4239
52.16    4291
52.18    4345
52.2     4250
52.22    4200
52.24    4300
52.26    4288
52.28    4209
52.3     4308
52.32    4288
52.34    4191
52.36    4224
52.38    4232
52.4     4175
52.42    4194
52.44    4146
52.46    4139
52.48    4065
52.5     4034
52.52    4201
52.54    4269
52.56    4369
52.58    4227
52.6     4253
52.62    4160
52.64    4193
52.66    4245
52.68    4332
52.7     4304
52.72    4260
52.74    4194
52.76    4219
52.78    4220
52.8     4267
52.82    4276
52.84    4165
52.86    4268
52.88    4384
52.9     4314
52.92    4364
52.94    4350
52.96    4379
52.98    4286
53.0     4240
53.02    4457
53.04    4274
53.06    4349
53.08    4304
53.1     4272
53.12    4319
53.14    4450
53.16    4431
53.18    4278
53.2     4495
53.22    4443
53.24    4335
53.26    4291
53.28    4462
53.3     4294
53.32    4396
53.34    4332
53.36    4381
53.38    4335
53.4     4349
53.42    4360
53.44    4381
53.46    4384
53.48    4398
53.5     4432
53.52    4330
53.54    4383
53.56    4347
53.58    4299
53.6     4359
53.62    4285
53.64    4327
53.66    4230
53.68    4338
53.7     4372
53.72    4247
53.74    4240
53.76    4150
53.78    4196
53.8     4134
53.82    4079
53.84    4171
53.86    4129
53.88    4117
53.9     4023
53.92    4027
53.94    4003
53.96    3961
53.98    3949
54.0     3928
54.02    3851
54.04    3905
54.06    3857
54.08    3798
54.1     3767
54.12    3695
54.14    3693
54.16    3577
54.18    3693
54.2     3716
54.22    3675
54.24    3606
54.26    3570
54.28    3595
54.3     3457
54.32    3456
54.34    3465
54.36    3315
54.38    3273
54.4     3327
54.42    3329
54.44    3370
54.46    3286
54.48    3219
54.5     3199
54.52    3136
54.54    3199
54.56    3116
54.58    3173
54.6     3071
54.62    3101
54.64    3018
54.66    2968
54.68    2941
54.7     2939
54.72    2912
54.74    2899
54.76    2920
54.78    2866
54.8     2825
54.82    2810
54.84    2723
54.86    2737
54.88    2708
54.9     2628
54.92    2676
54.94    2629
54.96    2589
54.98    2512
55.0     2630
55.02    2584
55.04    2558
55.06    2497
55.08    2450
55.1     2461
55.12    2465
55.14    2454
55.16    2367
55.18    2382
55.2     2393
55.22    2322
55.24    2332
55.26    2297
55.28    2334
55.3     2293
55.32    2260
55.34    2267
55.36    2384
55.38    2297
55.4     2297
55.42    2253
55.44    2193
55.46    2214
55.48    2180
55.5     2210
55.52    2157
55.54    2185
55.56    2113
55.58    2211
55.6     2177
55.62    2199
55.64    2188
55.66    2215
55.68    2193
55.7     2138
55.72    2149
55.74    2169
55.76    2180
55.78    2159
55.8     2111
55.82    2148
55.84    2167
55.86    2152
55.88    2054
55.9     2129
55.92    2154
55.94    2191
55.96    2142
55.98    2128
56.0     2117
56.02    2205
56.04    2125
56.06    2169
56.08    2108
56.1     2149
56.12    2165
56.14    2137
56.16    2125
56.18    2117
56.2     2080
56.22    2132
56.24    2049
56.26    2043
56.28    2063
56.3     2130
56.32    2133
56.34    2140
56.36    2051
56.38    2072
56.4     2113
56.42    2089
56.44    2128
56.46    2078
56.48    2066
56.5     2109
56.52    2085
56.54    2069
56.56    2103
56.58    2091
56.6     2100
56.62    2052
56.64    2113
56.66    2085
56.68    2156
56.7     2094
56.72    2112
56.74    2077
56.76    2129
56.78    2131
56.8     2069
56.82    2058
56.84    2016
56.86    2076
56.88    2063
56.9     2071
56.92    2037
56.94    2103
56.96    2033
56.98    2036
57.0     2072
57.02    2110
57.04    2087
57.06    2071
57.08    2112
57.1     2014
57.12    1961
57.14    2030
57.16    2021
57.18    2033
57.2     2059
57.22    1994
57.24    2076
57.26    2080
57.28    1997
57.3     2005
57.32    2015
57.34    2014
57.36    2037
57.38    2005
57.4     2055
57.42    1981
57.44    2027
57.46    1984
57.48    2033
57.5     2017
57.52    2053
57.54    2009
57.56    2092
57.58    2017
57.6     1931
57.62    1957
57.64    2020
57.66    1959
57.68    2037
57.7     1970
57.72    1964
57.74    1973
57.76    1995
57.78    2009
57.8     2071
57.82    1994
57.84    2027
57.86    2032
57.88    1993
57.9     1921
57.92    2052
57.94    1943
57.96    2029
57.98    2056
58.0     2078
58.02    2019
58.04    1992
58.06    1974
58.08    1979
58.1     2068
58.12    2069
58.14    1977
58.16    2040
58.18    2014
58.2     2052
58.22    2044
58.24    1976
58.26    1929
58.28    2013
58.3     1980
58.32    2048
58.34    1949
58.36    1934
58.38    2009
58.4     1997
58.42    1982
58.44    1972
58.46    1986
58.48    2006
58.5     1982
58.52    1955
58.54    1964
58.56    1935
58.58    1943
58.6     2058
58.62    2021
58.64    2085
58.66    2038
58.68    1922
58.7     2042
58.72    2019
58.74    1961
58.76    1956
58.78    1933
58.8     1968
58.82    1964
58.84    2009
58.86    2054
58.88    1998
58.9     2028
58.92    1990
58.94    1974
58.96    1948
58.98    1869
59.0     1991
59.02    1997
59.04    1998
59.06    1999
59.08    2009
59.1     2007
59.12    2065
59.14    1995
59.16    1983
59.18    1995
59.2     2057
59.22    1998
59.24    1999
59.26    2059
59.28    2045
59.3     2017
59.32    2019
59.34    1971
59.36    1992
59.38    2027
59.4     1983
59.42    1980
59.44    1963
59.46    1972
59.48    2021
59.5     2047
59.52    2035
59.54    2054
59.56    1999
59.58    2041
59.6     1965
59.62    1948
59.64    2000
59.66    1985
59.68    2022
59.7     2013
59.72    2094
59.74    1982
59.76    1987
59.78    2019
59.8     2002
59.82    1999
59.84    1942
59.86    1935
59.88    1973
59.9     1910
59.92    1991
59.94    2035
59.96    2003
59.98    2020
60.0     2045
60.02    2012
60.04    2013
60.06    1978
60.08    1962
60.1     1954
60.12    2031
60.14    2017
60.16    1999
60.18    1990
60.2     2023
60.22    2062
60.24    2052
60.26    2014
60.28    2046
60.3     2001
60.32    2068
60.34    2081
60.36    2051
60.38    2020
60.4     2028
60.42    2075
60.44    1985
60.46    1963
60.48    1969
60.5     2057
60.52    2066
60.54    2028
60.56    2067
60.58    2124
60.6     2026
60.62    2080
60.64    2030
60.66    2074
60.68    2152
60.7     2219
60.72    2158
60.74    2070
60.76    2092
60.78    2169
60.8     2143
60.82    2111
60.84    2097
60.86    2118
60.88    2157
60.9     2170
60.92    2172
60.94    2218
60.96    2205
60.98    2154
61.0     2205
61.02    2197
61.04    2244
61.06    2213
61.08    2258
61.1     2237
61.12    2268
61.14    2284
61.16    2296
61.18    2245
61.2     2352
61.22    2455
61.24    2459
61.26    2327
61.28    2356
61.3     2284
61.32    2377
61.34    2411
61.36    2431
61.38    2375
61.4     2422
61.42    2403
61.44    2459
61.46    2425
61.48    2428
61.5     2411
61.52    2453
61.54    2409
61.56    2449
61.58    2497
61.6     2570
61.62    2524
61.64    2551
61.66    2522
61.68    2530
61.7     2515
61.72    2558
61.74    2631
61.76    2548
61.78    2599
61.8     2610
61.82    2646
61.84    2621
61.86    2564
61.88    2659
61.9     2666
61.92    2693
61.94    2691
61.96    2642
61.98    2677
62.0     2704
62.02    2796
62.04    2732
62.06    2782
62.08    2726
62.1     2722
62.12    2680
62.14    2802
62.16    2696
62.18    2666
62.2     2787
62.22    2754
62.24    2679
62.26    2827
62.28    2854
62.3     2812
62.32    2769
62.34    2811
62.36    2805
62.38    2776
62.4     2694
62.42    2727
62.44    2731
62.46    2821
62.48    2810
62.5     2798
62.52    2852
62.54    2828
62.56    2764
62.58    2764
62.6     2706
62.62    2753
62.64    2825
62.66    2758
62.68    2730
62.7     2756
62.72    2781
62.74    2787
62.76    2773
62.78    2762
62.8     2739
62.82    2746
62.84    2771
62.86    2760
62.88    2762
62.9     2705
62.92    2744
62.94    2642
62.96    2693
62.98    2710
63.0     2677
63.02    2670
63.04    2682
63.06    2598
63.08    2605
63.1     2614
63.12    2652
63.14    2596
63.16    2560
63.18    2627
63.2     2577
63.22    2577
63.24    2590
63.26    2560
63.28    2565
63.3     2520
63.32    2522
63.34    2549
63.36    2518
63.38    2549
63.4     2593
63.42    2505
63.44    2451
63.46    2466
63.48    2496
63.5     2408
63.52    2405
63.54    2348
63.56    2331
63.58    2388
63.6     2412
63.62    2377
63.64    2387
63.66    2448
63.68    2337
63.7     2339
63.72    2365
63.74    2328
63.76    2324
63.78    2308
63.8     2296
63.82    2240
63.84    2146
63.86    2218
63.88    2209
63.9     2186
63.92    2180
63.94    2106
63.96    2130
63.98    2146
64.0     2094
64.02    2163
64.04    2119
64.06    2147
64.08    2086
64.1     2103
64.12    2133
64.14    2135
64.16    2165
64.18    2061
64.2     2064
64.22    2111
64.24    2048
64.26    2048
64.28    2101
64.3     1980
64.32    2001
64.34    2045
64.36    2023
64.38    2030
64.4     2023
64.42    2028
64.44    2019
64.46    2021
64.48    1994
64.5     2009
64.52    2018
64.54    1951
64.56    1946
64.58    1986
64.6     1960
64.62    1983
64.64    1954
64.66    2004
64.68    2024
64.7     1956
64.72    1934
64.74    1928
64.76    1956
64.78    1940
64.8     1940
64.82    2008
64.84    1944
64.86    1940
64.88    1961
64.9     1963
64.92    1953
64.94    1967
64.96    1917
64.98    1957
65.0     1874
65.02    1920
65.04    1894
65.06    1922
65.08    1939
65.1     1918
65.12    1961
65.14    1926
65.16    1934
65.18    1912
65.2     1959
65.22    2009
65.24    1987
65.26    1935
65.28    1936
65.3     1959
65.32    1924
65.34    1884
65.36    1896
65.38    1981
65.4     2003
65.42    1937
65.44    1920
65.46    1965
65.48    1893
65.5     1947
65.52    1976
65.54    1870
65.56    1885
65.58    1887
65.6     1926
65.62    1972
65.64    1936
65.66    1924
65.68    1971
65.7     1902
65.72    1925
65.74    1895
65.76    1899
65.78    1963
65.8     1967
65.82    1970
65.84    1964
65.86    1962
65.88    1971
65.9     1945
65.92    1919
65.94    1932
65.96    1970
65.98    1984
66.0     1952
66.02    1900
66.04    1964
66.06    1987
66.08    1953
66.1     1997
66.12    1960
66.14    1942
66.16    1989
66.18    1996
66.2     1989
66.22    1975
66.24    1998
66.26    1917
66.28    1974
66.3     1950
66.32    1963
66.34    1960
66.36    1974
66.38    1953
66.4     2031
66.42    2008
66.44    1947
66.46    1984
66.48    1989
66.5     1986
66.52    2049
66.54    2062
66.56    2031
66.58    2011
66.6     1997
66.62    2016
66.64    2046
66.66    2075
66.68    2122
66.7     2095
66.72    2103
66.74    2113
66.76    2086
66.78    2125
66.8     2102
66.82    2071
66.84    2111
66.86    2108
66.88    2153
66.9     2186
66.92    2143
66.94    2158
66.96    2174
66.98    2114
67.0     2208
67.02    2212
67.04    2204
67.06    2268
67.08    2300
67.1     2229
67.12    2284
67.14    2283
67.16    2245
67.18    2292
67.2     2344
67.22    2281
67.24    2346
67.26    2372
67.28    2358
67.3     2403
67.32    2448
67.34    2431
67.36    2392
67.38    2443
67.4     2462
67.42    2488
67.44    2483
67.46    2467
67.48    2533
67.5     2522
67.52    2587
67.54    2592
67.56    2638
67.58    2651
67.6     2626
67.62    2663
67.64    2696
67.66    2742
67.68    2736
67.7     2744
67.72    2724
67.74    2868
67.76    2837
67.78    2819
67.8     2836
67.82    2849
67.84    2797
67.86    2884
67.88    2938
67.9     2932
67.92    2969
67.94    2994
67.96    2962
67.98    2965
68.0     2971
68.02    3006
68.04    3073
68.06    3115
68.08    3067
68.1     3148
68.12    3079
68.14    3144
68.16    3101
68.18    3113
68.2     3068
68.22    3117
68.24    3236
68.26    3207
68.28    3229
68.3     3208
68.32    3213
68.34    3218
68.36    3281
68.38    3329
68.4     3233
68.42    3239
68.44    3276
68.46    3315
68.48    3327
68.5     3323
68.52    3304
68.54    3343
68.56    3337
68.58    3363
68.6     3363
68.62    3411
68.64    3355
68.66    3390
68.68    3408
68.7     3478
68.72    3421
68.74    3401
68.76    3471
68.78    3521
68.8     3517
68.82    3490
68.84    3528
68.86    3525
68.88    3463
68.9     3433
68.92    3518
68.94    3531
68.96    3452
68.98    3440
69.0     3543
69.02    3496
69.04    3555
69.06    3455
69.08    3547
69.1     3491
69.12    3507
69.14    3464
69.16    3593
69.18    3564
69.2     3599
69.22    3610
69.24    3576
69.26    3554
69.28    3579
69.3     3641
69.32    3657
69.34    3690
69.36    3669
69.38    3687
69.4     3683
69.42    3679
69.44    3708
69.46    3653
69.48    3759
69.5     3769
69.52    3759
69.54    3769
69.56    3697
69.58    3749
69.6     3735
69.62    3693
69.64    3719
69.66    3700
69.68    3731
69.7     3698
69.72    3776
69.74    3745
69.76    3728
69.78    3763
69.8     3792
69.82    3873
69.84    3899
69.86    3830
69.88    3876
69.9     3870
69.92    3848
69.94    3914
69.96    3919
69.98    3884
70.0     3987
70.02    3956
70.04    3869
70.06    3908
70.08    3991
70.1     3931
70.12    3917
70.14    3940
70.16    3968
70.18    3952
70.2     3981
70.22    3937
70.24    3901
70.26    3952
70.28    3984
70.3     4008
70.32    3996
70.34    4030
70.36    3976
70.38    4009
70.4     4035
70.42    3994
70.44    4033
70.46    4020
70.48    4037
70.5     4117
70.52    4068
70.54    4064
70.56    4118
70.58    4072
70.6     4001
70.62    4038
70.64    3987
70.66    4131
70.68    4158
70.7     4079
70.72    4040
70.74    4084
70.76    4023
70.78    4058
70.8     4047
70.82    4089
70.84    4108
70.86    4086
70.88    4060
70.9     4136
70.92    4033
70.94    3954
70.96    4005
70.98    4051
71.0     4025
71.02    4019
71.04    3972
71.06    3964
71.08    3963
71.1     4061
71.12    3989
71.14    3986
71.16    3895
71.18    3931
71.2     3887
71.22    3860
71.24    3809
71.26    3824
71.28    3845
71.3     3870
71.32    3786
71.34    3849
71.36    3831
71.38    3712
71.4     3755
71.42    3770
71.44    3720
71.46    3712
71.48    3755
71.5     3625
71.52    3569
71.54    3595
71.56    3527
71.58    3539
71.6     3558
71.62    3568
71.64    3428
71.66    3458
71.68    3439
71.7     3384
71.72    3357
71.74    3326
71.76    3282
71.78    3294
71.8     3227
71.82    3270
71.84    3269
71.86    3220
71.88    3191
71.9     3173
71.92    3151
71.94    3104
71.96    3001
71.98    2966
72.0     2931
72.02    2992
72.04    2941
72.06    2880
72.08    2893
72.1     2972
72.12    2995
72.14    2865
72.16    2894
72.18    2846
72.2     2791
72.22    2821
72.24    2787
72.26    2701
72.28    2686
72.3     2740
72.32    2684
72.34    2593
72.36    2581
72.38    2662
72.4     2645
72.42    2619
72.44    2544
72.46    2525
72.48    2461
72.5     2459
72.52    2454
72.54    2387
72.56    2384
72.58    2403
72.6     2349
72.62    2302
72.64    2365
72.66    2381
72.68    2314
72.7     2311
72.72    2259
72.74    2246
72.76    2244
72.78    2269
72.8     2217
72.82    2254
72.84    2223
72.86    2220
72.88    2156
72.9     2193
72.92    2194
72.94    2152
72.96    2208
72.98    2138
73.0     2122
73.02    2123
73.04    2087
73.06    2060
73.08    2018
73.1     1977
73.12    2045
73.14    2020
73.16    2008
73.18    2003
73.2     2067
73.22    2013
73.24    2040
73.26    2076
73.28    1998
73.3     2001
73.32    2017
73.34    1910
73.36    1893
73.38    1944
73.4     1968
73.42    1915
73.44    1849
73.46    1840
73.48    1822
73.5     1865
73.52    1869
73.54    1853
73.56    1858
73.58    1866
73.6     1853
73.62    1916
73.64    1911
73.66    1864
73.68    1897
73.7     1844
73.72    1921
73.74    1862
73.76    1869
73.78    1854
73.8     1857
73.82    1863
73.84    1885
73.86    1847
73.88    1823
73.9     1844
73.92    1784
73.94    1788
73.96    1749
73.98    1841
74.0     1810
74.02    1828
74.04    1832
74.06    1829
74.08    1810
74.1     1820
74.12    1847
74.14    1835
74.16    1828
74.18    1795
74.2     1794
74.22    1817
74.24    1825
74.26    1867
74.28    1832
74.3     1862
74.32    1843
74.34    1819
74.36    1787
74.38    1809
74.4     1820
74.42    1794
74.44    1836
74.46    1850
74.48    1820
74.5     1858
74.52    1849
74.54    1838
74.56    1836
74.58    1817
74.6     1840
74.62    1850
74.64    1817
74.66    1836
74.68    1798
74.7     1750
74.72    1781
74.74    1806
74.76    1837
74.78    1824
74.8     1807
74.82    1823
74.84    1776
74.86    1818
74.88    1870
74.9     1846
74.92    1796
74.94    1827
74.96    1806
74.98    1808
75.0     1775
75.02    1809
75.04    1719
75.06    1719
75.08    1748
75.1     1741
75.12    1774
75.14    1822
75.16    1816
75.18    1819
75.2     1827
75.22    1765
75.24    1787
75.26    1784
75.28    1765
75.3     1811
75.32    1795
75.34    1794
75.36    1828
75.38    1804
75.4     1830
75.42    1794
75.44    1842
75.46    1849
75.48    1833
75.5     1813
75.52    1735
75.54    1717
75.56    1719
75.58    1794
75.6     1800
75.62    1767
75.64    1780
75.66    1755
75.68    1845
75.7     1800
75.72    1753
75.74    1743
75.76    1743
75.78    1762
75.8     1782
75.82    1748
75.84    1740
75.86    1751
75.88    1755
75.9     1761
75.92    1754
75.94    1756
75.96    1733
75.98    1733
76.0     1743
76.02    1721
76.04    1716
76.06    1719
76.08    1749
76.1     1754
76.12    1757
76.14    1737
76.16    1740
76.18    1729
76.2     1745
76.22    1801
76.24    1800
76.26    1749
76.28    1741
76.3     1717
76.32    1829
76.34    1777
76.36    1832
76.38    1800
76.4     1762
76.42    1745
76.44    1796
76.46    1871
76.48    1829
76.5     1763
76.52    1759
76.54    1756
76.56    1758
76.58    1820
76.6     1793
76.62    1806
76.64    1790
76.66    1777
76.68    1814
76.7     1794
76.72    1836
76.74    1860
76.76    1898
76.78    1880
76.8     1888
76.82    1921
76.84    1855
76.86    1883
76.88    1858
76.9     1851
76.92    1916
76.94    1878
76.96    1936
76.98    1896
77.0     1944
77.02    1936
77.04    1950
77.06    1963
77.08    2018
77.1     1946
77.12    1954
77.14    1980
77.16    2040
77.18    2021
77.2     1999
77.22    2016
77.24    2062
77.26    2102
77.28    2085
77.3     2085
77.32    2109
77.34    2065
77.36    2032
77.38    2091
77.4     2093
77.42    2103
77.44    2143
77.46    2146
77.48    2162
77.5     2227
77.52    2202
77.54    2161
77.56    2175
77.58    2179
77.6     2237
77.62    2281
77.64    2157
77.66    2245
77.68    2330
77.7     2368
77.72    2360
77.74    2365
77.76    2331
77.78    2366
77.8     2381
77.82    2389
77.84    2386
77.86    2460
77.88    2463
77.9     2504
77.92    2418
77.94    2406
77.96    2492
77.98    2562
78.0     2498
78.02    2430
78.04    2472
78.06    2529
78.08    2531
78.1     2563
78.12    2578
78.14    2639
78.16    2605
78.18    2583
78.2     2578
78.22    2644
78.24    2586
78.26    2585
78.28    2601
78.3     2648
78.32    2611
78.34    2653
78.36    2701
78.38    2667
78.4     2703
78.42    2729
78.44    2742
78.46    2722
78.48    2719
78.5     2666
78.52    2693
78.54    2715
78.56    2767
78.58    2823
78.6     2708
78.62    2733
78.64    2733
78.66    2763
78.68    2775
78.7     2765
78.72    2826
78.74    2794
78.76    2814
78.78    2807
78.8     2698
78.82    2694
78.84    2742
78.86    2828
78.88    2820
78.9     2818
78.92    2790
78.94    2734
78.96    2779
78.98    2735
79.0     2722
79.02    2763
79.04    2762
79.06    2770
79.08    2796
79.1     2729
79.12    2753
79.14    2773
79.16    2701
79.18    2674
79.2     2727
79.22    2733
79.24    2682
79.26    2637
79.28    2627
79.3     2655
79.32    2673
79.34    2594
79.36    2634
79.38    2636
79.4     2666
79.42    2604
79.44    2640
79.46    2571
79.48    2554
79.5     2502
79.52    2509
79.54    2453
79.56    2431
79.58    2517
79.6     2495
79.62    2482
79.64    2479
79.66    2481
79.68    2529
79.7     2458
79.72    2473
79.74    2436
79.76    2382
79.78    2393
79.8     2349
79.82    2340
79.84    2333
79.86    2406
79.88    2359
79.9     2339
79.92    2299
79.94    2297
79.96    2290
79.98    2248
80.0     2255
80.02    2272
80.04    2257
80.06    2219
80.08    2217
80.1     2227
80.12    2188
80.14    2222
80.16    2231
80.18    2149
80.2     2109
80.22    2104
80.24    2095
80.26    2091
80.28    2077
80.3     2075
80.32    2053
80.34    2051
80.36    2065
80.38    2017
80.4     2024
80.42    1980
80.44    1985
80.46    2008
80.48    1992
80.5     1974
80.52    1926
80.54    1972
80.56    1973
80.58    1951
80.6     1925
80.62    1906
80.64    1911
80.66    1965
80.68    1889
80.7     1877
80.72    1873
80.74    1883
80.76    1829
80.78    1860
80.8     1786
80.82    1847
80.84    1860
80.86    1813
80.88    1803
80.9     1771
80.92    1823
80.94    1811
80.96    1786
80.98    1778
81.0     1765
81.02    1779
81.04    1756
81.06    1722
81.08    1701
81.1     1698
81.12    1806
81.14    1763
81.16    1763
81.18    1689
81.2     1707
81.22    1681
81.24    1701
81.26    1679
81.28    1688
81.3     1670
81.32    1624
81.34    1666
81.36    1666
81.38    1681
81.4     1754
81.42    1670
81.44    1578
81.46    1624
81.48    1625
81.5     1622
81.52    1641
81.54    1693
81.56    1636
81.58    1631
81.6     1609
81.62    1640
81.64    1673
81.66    1671
81.68    1608
81.7     1610
81.72    1624
81.74    1656
81.76    1611
81.78    1645
81.8     1623
81.82    1577
81.84    1601
81.86    1630
81.88    1717
81.9     1619
81.92    1659
81.93    1648
81.96    1648
81.98    1658
82.0     1617
82.02    1662
82.04    1557
82.06    1632
82.08    1656
82.1     1618
82.12    1656
82.14    1599
82.16    1628
82.18    1657
82.2     1653
82.22    1712
82.24    1657
82.26    1651
82.28    1693
82.3     1637
82.32    1653
82.34    1701
82.36    1664
82.38    1646
82.4     1645
82.42    1708
82.43    1691
82.46    1650
82.48    1673
82.5     1687
82.52    1720
82.54    1727
82.56    1627
82.58    1637
82.6     1642
82.62    1664
82.64    1692
82.66    1643
82.68    1714
82.7     1719
82.72    1769
82.74    1804
82.76    1745
82.78    1732
82.8     1731
82.82    1740
82.84    1727
82.86    1715
82.88    1764
82.9     1733
82.92    1804
82.93    1766
82.96    1791
82.98    1775
83.0     1763
83.02    1804
83.04    1818
83.06    1747
83.08    1796
83.1     1786
83.12    1880
83.14    1858
83.16    1854
83.18    1830
83.2     1764
83.22    1811
83.24    1871
83.26    1795
83.28    1821
83.3     1853
83.32    1876
83.34    1904
83.36    1877
83.38    1960
83.4     1952
83.42    1978
83.43    1942
83.46    1880
83.48    1975
83.5     1973
83.52    1951
83.54    1967
83.56    1948
83.58    1915
83.6     1958
83.62    1998
83.64    1965
83.66    1992
83.68    2064
83.7     2050
83.72    2008
83.74    2089
83.76    1995
83.78    2011
83.8     2076
83.82    2015
83.84    2039
83.86    2093
83.88    2095
83.9     2078
83.92    2071
83.93    2101
83.96    2144
83.98    2052
84.0     2059
84.02    2067
84.04    2128
84.06    2116
84.08    2137
84.1     2066
84.12    2135
84.14    2137
84.16    2142
84.18    2175
84.2     2173
84.22    2194
84.24    2134
84.26    2145
84.28    2192
84.3     2123
84.32    2218
84.34    2191
84.36    2213
84.38    2125
84.4     2112
84.42    2107
84.43    2116
84.46    2164
84.48    2223
84.5     2191
84.52    2174
84.54    2176
84.56    2213
84.58    2138
84.6     2228
84.62    2253
84.64    2247
84.66    2220
84.68    2150
84.7     2140
84.72    2184
84.74    2209
84.76    2220
84.78    2208
84.8     2172
84.82    2119
84.84    2182
84.86    2164
84.88    2176
84.9     2162
84.92    2106
84.93    2140
84.96    2122
84.98    2154
85.0     2218
85.02    2176
85.04    2148
85.06    2213
85.08    2104
85.1     2150
85.12    2132
85.14    2122
85.16    2045
85.18    2099
85.2     2073
85.22    2080
85.24    2097
85.26    2114
85.28    2130
85.3     2121
85.32    2090
85.34    2072
85.36    2073
85.38    2109
85.4     2084
85.42    2011
85.43    2067
85.46    2084
85.48    2076
85.5     2109
85.52    1960
85.54    1998
85.56    2055
85.58    2059
85.6     2044
85.62    2023
85.64    1995
85.66    1967
85.68    1939
85.7     1981
85.72    2036
85.74    1923
85.76    1921
85.78    1911
85.8     1871
85.82    1867
85.84    1847
85.86    1872
85.88    1910
85.9     1924
85.92    1896
85.93    1817
85.96    1847
85.98    1840
86.0     1834
86.02    1844
86.04    1799
86.06    1763
86.08    1854
86.1     1791
86.12    1797
86.14    1787
86.16    1748
86.18    1755
86.2     1797
86.22    1713
86.24    1762
86.26    1739
86.28    1742
86.3     1747
86.32    1768
86.34    1704
86.36    1717
86.38    1685
86.4     1710
86.42    1683
86.43    1653
86.46    1664
86.48    1672
86.5     1702
86.52    1666
86.54    1624
86.56    1619
86.58    1679
86.6     1642
86.62    1654
86.64    1606
86.66    1550
86.68    1598
86.7     1567
86.72    1569
86.74    1647
86.76    1595
86.78    1572
86.8     1614
86.82    1577
86.84    1535
86.86    1657
86.88    1566
86.9     1585
86.92    1545
86.93    1609
86.96    1608
86.98    1607
87.0     1589
87.02    1558
87.04    1571
87.06    1504
87.08    1562
87.1     1562
87.12    1581
87.14    1556
87.16    1501
87.18    1513
87.2     1522
87.22    1507
87.24    1456
87.26    1522
87.28    1575
87.3     1515
87.32    1484
87.34    1488
87.36    1475
87.38    1483
87.4     1504
87.42    1514
87.43    1434
87.46    1508
87.48    1578
87.5     1508
87.52    1524
87.54    1591
87.56    1537
87.58    1485
87.6     1530
87.62    1530
87.64    1538
87.66    1548
87.68    1492
87.7     1500
87.72    1526
87.74    1431
87.76    1483
87.78    1547
87.8     1468
87.82    1510
87.84    1485
87.86    1469
87.88    1495
87.9     1508
87.92    1461
87.93    1504
87.96    1479
87.98    1466
88.0     1442
88.02    1475
88.04    1455
88.06    1484
88.08    1479
88.1     1499
88.12    1429
88.14    1430
88.16    1436
88.18    1464
88.2     1523
88.22    1457
88.24    1480
88.26    1489
88.28    1448
88.3     1473
88.32    1481
88.34    1472
88.36    1471
88.38    1507
88.4     1474
88.42    1462
88.43    1482
88.46    1466
88.48    1468
88.5     1458
88.52    1432
88.54    1481
88.56    1441
88.58    1481
88.6     1455
88.62    1475
88.64    1462
88.66    1477
88.68    1476
88.7     1497
88.72    1513
88.74    1506
88.76    1460
88.78    1489
88.8     1443
88.82    1422
88.84    1493
88.86    1469
88.88    1527
88.9     1496
88.92    1510
88.93    1408
88.96    1477
88.98    1431
89.0     1477
89.02    1487
89.04    1482
89.06    1454
89.08    1476
89.1     1475
89.12    1461
89.14    1464
89.16    1519
89.18    1494
89.2     1513
89.22    1543
89.24    1444
89.26    1398
89.28    1448
89.3     1460
89.32    1498
89.34    1451
89.36    1513
89.38    1496
89.4     1480
89.42    1429
89.43    1470
89.46    1449
89.48    1455
89.5     1438
89.52    1537
89.54    1484
89.56    1492
89.58    1461
89.6     1475
89.62    1429
89.64    1466
89.66    1484
89.68    1448
89.7     1491
89.72    1481
89.74    1440
89.76    1513
89.78    1524
89.8     1487
89.82    1488
89.84    1491
89.86    1458
89.88    1403
89.9     1524
89.92    1488
89.93    1487
89.96    1436
89.98    1494
90.0     1525
