#PbS_1689_8nm_0511201 - Default scan
20.0     10208
20.02    10267
20.04    10236
20.06    10260
20.08    10309
20.1     10206
20.12    10162
20.14    10108
20.16    10121
20.18    10136
20.2     10173
20.22    10117
20.24    10188
20.26    10189
20.28    10177
20.3     10337
20.32    10334
20.34    10203
20.36    10355
20.38    10345
20.4     10296
20.42    10275
20.44    10011
20.46    9960
20.48    9994
20.5     9994
20.52    10086
20.54    10162
20.56    10042
20.58    9939
20.6     10051
20.62    10031
20.64    10062
20.66    10024
20.68    9847
20.7     9976
20.72    9934
20.74    9961
20.76    9960
20.78    10030
20.8     9966
20.82    9893
20.84    10058
20.86    10073
20.88    10009
20.9     9981
20.92    10055
20.94    10039
20.96    9921
20.98    9956
21.0     9960
21.02    9987
21.04    9911
21.06    9940
21.08    9891
21.1     9986
21.12    9798
21.14    9869
21.16    9866
21.18    9823
21.2     9845
21.22    10121
21.24    10084
21.26    9798
21.28    10026
21.3     10024
21.32    10037
21.34    10150
21.36    9905
21.38    9821
21.4     9924
21.42    9836
21.44    9954
21.46    9996
21.48    9933
21.5     9944
21.52    9880
21.54    9947
21.56    10034
21.58    9929
21.6     9932
21.62    9758
21.64    9784
21.66    9891
21.68    9800
21.7     9633
21.72    9683
21.74    9662
21.76    9844
21.78    9847
21.8     9935
21.82    10019
21.84    9905
21.86    9830
21.88    9634
21.9     9583
21.92    9738
21.94    9689
21.96    9736
21.98    9683
22.0     9669
22.02    9719
22.04    9626
22.06    9623
22.08    9881
22.1     9798
22.12    9611
22.14    9639
22.16    9749
22.18    9671
22.2     9497
22.22    9641
22.24    9699
22.26    9738
22.28    9965
22.3     9745
22.32    9583
22.34    9521
22.36    9460
22.38    9584
22.4     9670
22.42    9701
22.44    9591
22.46    9607
22.48    9685
22.5     9652
22.52    9465
22.54    9534
22.56    9657
22.58    9742
22.6     9737
22.62    9596
22.64    9552
22.66    9753
22.68    9735
22.7     9684
22.72    9612
22.74    9700
22.76    9699
22.78    9602
22.8     9720
22.82    9697
22.84    9623
22.86    9530
22.88    9601
22.9     9665
22.92    9616
22.94    9595
22.96    9647
22.98    9588
23.0     9679
23.02    9599
23.04    9598
23.06    9781
23.08    9691
23.1     9634
23.12    9611
23.14    9497
23.16    9563
23.18    9521
23.2     9427
23.22    9543
23.24    9660
23.26    9516
23.28    9548
23.3     9492
23.32    9600
23.34    9489
23.36    9528
23.38    9627
23.4     9588
23.42    9471
23.44    9664
23.46    9436
23.48    9366
23.5     9522
23.52    9421
23.54    9480
23.56    9461
23.58    9562
23.6     9490
23.62    9460
23.64    9617
23.66    9634
23.68    9696
23.7     9886
23.72    9657
23.74    9502
23.76    9600
23.78    9672
23.8     9749
23.82    9894
23.84    9785
23.86    9862
23.88    9905
23.9     9963
23.92    9912
23.94    9895
23.96    9945
23.98    10004
24.0     10028
24.02    10190
24.04    10043
24.06    9978
24.08    10060
24.1     10085
24.12    10147
24.14    10186
24.16    10218
24.18    10229
24.2     10226
24.22    10253
24.24    10447
24.26    10510
24.28    10196
24.3     10148
24.32    10417
24.34    10273
24.36    10270
24.38    10371
24.4     10095
24.42    10269
24.44    10351
24.46    10306
24.48    10358
24.5     10376
24.52    10293
24.54    10394
24.56    10581
24.58    10565
24.6     10440
24.62    10490
24.64    10617
24.66    10592
24.68    10743
24.7     10801
24.72    10878
24.74    10945
24.76    11239
24.78    11340
24.8     11380
24.82    11592
24.84    11902
24.86    12030
24.88    12092
24.9     12403
24.92    12786
24.94    13044
24.96    13316
24.98    13453
25.0     13776
25.02    14038
25.04    14366
25.06    14869
25.08    15418
25.1     15584
25.12    16041
25.14    16655
25.16    17097
25.18    17517
25.2     18082
25.22    18599
25.24    19112
25.26    19849
25.28    20570
25.3     21147
25.32    21608
25.34    21952
25.36    22591
25.38    23230
25.4     24200
25.42    24863
25.44    25004
25.46    25819
25.48    26568
25.5     27091
25.52    27901
25.54    28547
25.56    29330
25.58    29722
25.6     30580
25.62    30924
25.64    31216
25.66    31759
25.68    32549
25.7     33054
25.72    33688
25.74    34031
25.76    34275
25.78    34746
25.8     35251
25.82    35367
25.84    35821
25.86    36200
25.88    36410
25.9     36330
25.92    36488
25.94    36776
25.96    37092
25.98    37033
26.0     36955
26.02    36827
26.04    36707
26.06    36858
26.08    36736
26.1     36585
26.12    36111
26.14    36228
26.16    35859
26.18    35260
26.2     35015
26.22    34586
26.24    34377
26.26    34015
26.28    33417
26.3     33332
26.32    32741
26.34    31923
26.36    31432
26.38    31193
26.4     30510
26.42    29973
26.44    28965
26.46    28460
26.48    27883
26.5     27442
26.52    26843
26.54    25947
26.56    25051
26.58    24322
26.6     23846
26.62    23221
26.64    22790
26.66    22060
26.68    21512
26.7     20947
26.72    20321
26.74    19653
26.76    19085
26.78    18627
26.8     18243
26.82    17782
26.84    17017
26.86    16507
26.88    16055
26.9     15655
26.92    15445
26.94    14942
26.96    14434
26.98    14080
27.0     13685
27.02    13152
27.04    12861
27.06    12643
27.08    12380
27.1     12268
27.12    11880
27.14    11637
27.16    11596
27.18    11376
27.2     11195
27.22    10998
27.24    10691
27.26    10696
27.28    10464
27.3     10432
27.32    10337
27.34    10299
27.36    10198
27.38    10118
27.4     9996
27.42    9910
27.44    9754
27.46    9849
27.48    9913
27.5     9800
27.52    9672
27.54    9720
27.56    9763
27.58    9661
27.6     9599
27.62    9655
27.64    9742
27.66    9804
27.68    9796
27.7     9637
27.72    9765
27.74    9775
27.76    9875
27.78    9821
27.8     9623
27.82    9410
27.84    9624
27.86    9670
27.88    9597
27.9     9575
27.92    9620
27.94    9752
27.96    9494
27.98    9551
28.0     9575
28.02    9432
28.04    9471
28.06    9481
28.08    9444
28.1     9427
28.12    9370
28.14    9593
28.16    9146
28.18    9173
28.2     9326
28.22    9348
28.24    9193
28.26    9166
28.28    9198
28.3     9190
28.32    9102
28.34    9091
28.36    9114
28.38    9057
28.4     9038
28.42    9100
28.44    8968
28.46    8902
28.48    8892
28.5     8802
28.52    8875
28.54    8860
28.56    8958
28.58    8915
28.6     8900
28.62    8885
28.64    8904
28.66    8815
28.68    8766
28.7     8840
28.72    8929
28.74    9002
28.76    9097
28.78    9129
28.8     9114
28.82    9196
28.84    9183
28.86    9315
28.88    9370
28.9     9318
28.92    9571
28.94    9680
28.96    9722
28.98    9914
29.0     10064
29.02    10186
29.04    10442
29.06    10528
29.08    10494
29.1     10759
29.12    11210
29.14    11275
29.16    11555
29.18    11671
29.2     11857
29.22    12131
29.24    12446
29.26    12770
29.28    12844
29.3     13387
29.32    13655
29.34    14019
29.36    14439
29.38    14876
29.4     15285
29.42    15474
29.44    15733
29.46    16190
29.48    16622
29.5     16784
29.52    16985
29.54    17130
29.56    17545
29.58    17855
29.6     18455
29.62    18641
29.64    19055
29.66    19184
29.68    19484
29.7     19905
29.72    19989
29.74    20412
29.76    20716
29.78    21155
29.8     21453
29.82    21376
29.84    21851
29.86    22016
29.88    22283
29.9     22346
29.92    22412
29.94    22648
29.96    22772
29.98    22734
30.0     22793
30.02    22773
30.04    22989
30.06    22933
30.08    23141
30.1     23001
30.12    23162
30.14    22767
30.16    22774
30.18    22655
30.2     22437
30.22    22482
30.24    22202
30.26    22045
30.28    21926
30.3     21479
30.32    21325
30.34    20993
30.36    20845
30.38    20649
30.4     20415
30.42    20136
30.44    19715
30.46    19039
30.48    18841
30.5     18875
30.52    18327
30.54    18003
30.56    17665
30.58    17312
30.6     16798
30.62    16241
30.64    16160
30.66    16104
30.68    15555
30.7     15375
30.72    15001
30.74    14570
30.76    14150
30.78    13721
30.8     13366
30.82    13105
30.84    12906
30.86    12349
30.88    12147
30.9     12064
30.92    11794
30.94    11435
30.96    11140
30.98    10949
31.0     10496
31.02    10263
31.04    9942
31.06    9837
31.08    9752
31.1     9595
31.12    9209
31.14    9096
31.16    8860
31.18    8834
31.2     8683
31.22    8517
31.24    8347
31.26    8084
31.28    8063
31.3     8003
31.32    7822
31.34    7718
31.36    7656
31.38    7579
31.4     7562
31.42    7450
31.44    7278
31.46    7254
31.48    7323
31.5     7397
31.52    7179
31.54    7042
31.56    7133
31.58    7071
31.6     7044
31.62    7018
31.64    7067
31.66    7040
31.68    6914
31.7     6997
31.72    6961
31.74    6894
31.76    6897
31.78    6908
31.8     6907
31.82    6895
31.84    6870
31.86    6874
31.88    6818
31.9     6971
31.92    6779
31.94    6759
31.96    6799
31.98    6853
32.0     6861
32.02    6827
32.04    6766
32.06    6701
32.08    6763
32.1     6576
32.12    6702
32.14    6635
32.16    6580
32.18    6661
32.2     6762
32.22    6622
32.24    6504
32.26    6518
32.28    6594
32.3     6553
32.32    6398
32.34    6491
32.36    6443
32.38    6370
32.4     6313
32.42    6361
32.44    6448
32.46    6395
32.48    6371
32.5     6489
32.52    6374
32.54    6407
32.56    6273
32.58    6225
32.6     6147
32.62    6256
32.64    6175
32.66    6223
32.68    6240
32.7     6235
32.72    6154
32.74    6098
32.76    6051
32.78    6245
32.8     6125
32.82    6137
32.84    6051
32.86    5996
32.88    5913
32.9     6048
32.92    5983
32.94    5998
32.96    5961
32.98    5990
33.0     6019
33.02    5934
33.04    5996
33.06    5928
33.08    6048
33.1     5955
33.12    6009
33.14    5862
33.16    5929
33.18    5882
33.2     5869
33.22    5913
33.24    5910
33.26    5862
33.28    5877
33.3     5944
33.32    5942
33.34    5758
33.36    5841
33.38    5761
33.4     5815
33.42    5769
33.44    5748
33.46    5806
33.48    5813
33.5     5847
33.52    5768
33.54    5748
33.56    5770
33.58    5817
33.6     5757
33.62    5726
33.64    5589
33.66    5704
33.68    5727
33.7     5809
33.72    5727
33.74    5672
33.76    5619
33.78    5578
33.8     5709
33.82    5743
33.84    5536
33.86    5635
33.88    5643
33.9     5672
33.92    5557
33.94    5597
33.96    5646
33.98    5668
34.0     5591
34.02    5482
34.04    5564
34.06    5461
34.08    5469
34.1     5615
34.12    5554
34.14    5621
34.16    5605
34.18    5453
34.2     5434
34.22    5562
34.24    5541
34.26    5532
34.28    5500
34.3     5527
34.32    5560
34.34    5428
34.36    5475
34.38    5564
34.4     5648
34.42    5543
34.44    5518
34.46    5463
34.48    5487
34.5     5507
34.52    5451
34.54    5455
34.56    5342
34.58    5419
34.6     5395
34.62    5313
34.64    5391
34.66    5487
34.68    5447
34.7     5331
34.72    5355
34.74    5393
34.76    5321
34.78    5368
34.8     5429
34.82    5478
34.84    5281
34.86    5364
34.88    5432
34.9     5382
34.92    5378
34.94    5340
34.96    5279
34.98    5331
35.0     5269
35.02    5344
35.04    5330
35.06    5279
35.08    5290
35.1     5365
35.12    5256
35.14    5183
35.16    5126
35.18    5227
35.2     5311
35.22    5335
35.24    5280
35.26    5319
35.28    5252
35.3     5205
35.32    5314
35.34    5329
35.36    5307
35.38    5208
35.4     5260
35.42    5185
35.44    5269
35.46    5255
35.48    5204
35.5     5221
35.52    5206
35.54    5245
35.56    5347
35.58    5254
35.6     5165
35.62    5289
35.64    5298
35.66    5294
35.68    5405
35.7     5323
35.72    5187
35.74    5132
35.76    5265
35.78    5198
35.8     5097
35.82    5090
35.84    5095
35.86    5103
35.88    5241
35.9     5099
35.92    5116
35.94    5153
35.96    5172
35.98    5225
36.0     5237
36.02    5160
36.04    5150
36.06    5140
36.08    5209
36.1     5217
36.12    5286
36.14    5177
36.16    5269
36.18    5069
36.2     5120
36.22    5188
36.24    5126
36.26    5127
36.28    4984
36.3     5126
36.32    5108
36.34    5146
36.36    5098
36.38    5144
36.4     5164
36.42    5032
36.44    5146
36.46    5219
36.48    5198
36.5     5136
36.52    5148
36.54    5174
36.56    5057
36.58    4985
36.6     5146
36.62    5209
36.64    5134
36.66    5157
36.68    5239
36.7     5099
36.72    5140
36.74    5178
36.76    5155
36.78    5071
36.8     5207
36.82    5092
36.84    5142
36.86    5122
36.88    5089
36.9     5193
36.92    5119
36.94    5066
36.96    5168
36.98    5114
37.0     5062
37.02    5134
37.04    5180
37.06    5006
37.08    5032
37.1     5237
37.12    5168
37.14    5065
37.16    5138
37.18    5166
37.2     5117
37.22    5204
37.24    5116
37.26    5048
37.28    5104
37.3     5046
37.32    5183
37.34    5248
37.36    5084
37.38    5080
37.4     5237
37.42    5175
37.44    5138
37.46    5232
37.48    5133
37.5     5172
37.52    5134
37.54    5180
37.56    5100
37.58    5053
37.6     5203
37.62    5150
37.64    5235
37.66    5327
37.68    5255
37.7     5166
37.72    5219
37.74    5314
37.76    5203
37.78    5234
37.8     5216
37.82    5151
37.84    5170
37.86    5225
37.88    5275
37.9     5282
37.92    5203
37.94    5351
37.96    5291
37.98    5286
38.0     5300
38.02    5390
38.04    5272
38.06    5363
38.08    5332
38.1     5354
38.12    5480
38.14    5452
38.16    5527
38.18    5495
38.2     5457
38.22    5551
38.24    5415
38.26    5506
38.28    5555
38.3     5613
38.32    5439
38.34    5548
38.36    5508
38.38    5659
38.4     5757
38.42    5710
38.44    5690
38.46    5668
38.48    5731
38.5     5734
38.52    5669
38.54    5777
38.56    5698
38.58    5857
38.6     5764
38.62    5828
38.64    5878
38.66    5899
38.68    5847
38.7     5775
38.72    5768
38.74    5849
38.76    5835
38.78    5808
38.8     5949
38.82    5990
38.84    5948
38.86    5796
38.88    5792
38.9     5804
38.92    5929
38.94    5844
38.96    5752
38.98    5989
39.0     5832
39.02    5926
39.04    5903
39.06    5764
39.08    5925
39.1     5901
39.12    5893
39.14    5839
39.16    5866
39.18    5901
39.2     5849
39.22    5845
39.24    5859
39.26    5764
39.28    5846
39.3     5884
39.32    5915
39.34    5742
39.36    5790
39.38    5843
39.4     5832
39.42    5926
39.44    5889
39.46    5755
39.48    5876
39.5     5920
39.52    5939
39.54    5784
39.56    5907
39.58    5830
39.6     5875
39.62    5839
39.64    5894
39.66    5882
39.68    5788
39.7     5936
39.72    5893
39.74    5939
39.76    6027
39.78    5945
39.8     5918
39.82    5938
39.84    5889
39.86    5995
39.88    6080
39.9     5950
39.92    5969
39.94    6048
39.96    6049
39.98    5934
40.0     6036
40.02    5987
40.04    5981
40.06    6195
40.08    6143
40.1     5981
40.12    6031
40.14    6206
40.16    6177
40.18    6179
40.2     6155
40.22    6070
40.24    6120
40.26    6071
40.28    6216
40.3     6287
40.32    6246
40.34    6388
40.36    6344
40.38    6447
40.4     6507
40.42    6536
40.44    6498
40.46    6440
40.48    6497
40.5     6579
40.52    6657
40.54    6732
40.56    6797
40.58    6921
40.6     6947
40.62    6925
40.64    6999
40.66    7132
40.68    7138
40.7     7272
40.72    7337
40.74    7283
40.76    7292
40.78    7362
40.8     7580
40.82    7672
40.84    7597
40.86    7782
40.88    7909
40.9     7933
40.92    7956
40.94    8054
40.96    8197
40.98    8337
41.0     8294
41.02    8508
41.04    8577
41.06    8564
41.08    8520
41.1     8685
41.12    8638
41.14    8703
41.16    8594
41.18    8891
41.2     8849
41.22    8750
41.24    9012
41.26    9199
41.28    9240
41.3     9271
41.32    9243
41.34    9302
41.36    9411
41.38    9453
41.4     9548
41.42    9584
41.44    9789
41.46    9789
41.48    10045
41.5     9940
41.52    10123
41.54    10216
41.56    10234
41.58    10681
41.6     10910
41.62    11032
41.64    11286
41.66    11798
41.68    12117
41.7     12363
41.72    12621
41.74    12979
41.76    13521
41.78    13985
41.8     14285
41.82    14821
41.84    15472
41.86    16117
41.88    16577
41.9     17314
41.92    18219
41.94    18690
41.96    19653
41.98    20740
42.0     21481
42.02    22472
42.04    23276
42.06    24474
42.08    25437
42.1     26842
42.12    27885
42.14    28915
42.16    30398
42.18    31627
42.2     33096
42.22    34507
42.24    35774
42.26    37087
42.28    38925
42.3     40179
42.32    41665
42.34    44062
42.36    44935
42.38    46824
42.4     48413
42.42    50479
42.44    51255
42.46    53491
42.48    55051
42.5     56568
42.52    58702
42.54    59935
42.56    61852
42.58    63635
42.6     64720
42.62    66810
42.64    67976
42.66    69532
42.68    70822
42.7     72531
42.72    73912
42.74    75293
42.76    76594
42.78    77967
42.8     79713
42.82    80121
42.84    81313
42.86    82057
42.88    82789
42.9     83866
42.92    84467
42.94    85534
42.96    85866
42.98    86176
43.0     86929
43.02    87079
43.04    87520
43.06    87761
43.08    87623
43.1     87425
43.12    86980
43.14    86930
43.16    87186
43.18    86685
43.2     86347
43.22    85473
43.24    85168
43.26    84770
43.28    83848
43.3     82938
43.32    82472
43.34    80915
43.36    79250
43.38    78436
43.4     77357
43.42    75812
43.44    74588
43.46    73632
43.48    72260
43.5     70692
43.52    69633
43.54    67188
43.56    65698
43.58    64599
43.6     63211
43.62    61330
43.64    59799
43.66    58254
43.68    56084
43.7     54780
43.72    53226
43.74    51177
43.76    49836
43.78    48268
43.8     46713
43.82    45003
43.84    43506
43.86    41654
43.88    40190
43.9     38563
43.92    37036
43.94    35963
43.96    34288
43.98    32761
44.0     31595
44.02    30496
44.04    28872
44.06    27702
44.08    26533
44.1     25454
44.12    24041
44.14    23229
44.16    22302
44.18    21451
44.2     20446
44.22    19528
44.24    18844
44.26    17781
44.28    17229
44.3     16499
44.32    15927
44.34    15299
44.36    14695
44.38    14121
44.4     13456
44.42    13171
44.44    12565
44.46    12086
44.48    11680
44.5     11396
44.52    10995
44.54    10799
44.56    10669
44.58    10448
44.6     10143
44.62    9936
44.64    9724
44.66    9574
44.68    9280
44.7     9210
44.72    9054
44.74    9027
44.76    9001
44.78    8875
44.8     8736
44.82    8700
44.84    8578
44.86    8452
44.88    8500
44.9     8523
44.92    8252
44.94    8136
44.96    8283
44.98    8288
45.0     8185
45.02    8089
45.04    8004
45.06    8049
45.08    8067
45.1     7944
45.12    7888
45.14    7731
45.16    7834
45.18    7759
45.2     7724
45.22    7596
45.24    7556
45.26    7447
45.28    7498
45.3     7555
45.32    7534
45.34    7329
45.36    7357
45.38    7214
45.4     7199
45.42    7097
45.44    6961
45.46    7008
45.48    6965
45.5     6966
45.52    6905
45.54    6751
45.56    6703
45.58    6804
45.6     6623
45.62    6686
45.64    6584
45.66    6648
45.68    6605
45.7     6390
45.72    6581
45.74    6456
45.76    6495
45.78    6437
45.8     6292
45.82    6200
45.84    6220
45.86    6190
45.88    6182
45.9     6157
45.92    6066
45.94    6177
45.96    6217
45.98    6067
46.0     6050
46.02    5918
46.04    6046
46.06    5998
46.08    5961
46.1     5988
46.12    5830
46.14    5877
46.16    5887
46.18    5829
46.2     5798
46.22    5877
46.24    5845
46.26    5722
46.28    5666
46.3     5757
46.32    5759
46.34    5725
46.36    5692
46.38    5606
46.4     5705
46.42    5625
46.44    5708
46.46    5546
46.48    5551
46.5     5599
46.52    5438
46.54    5531
46.56    5485
46.58    5445
46.6     5530
46.62    5497
46.64    5506
46.66    5278
46.68    5473
46.7     5322
46.72    5464
46.74    5410
46.76    5400
46.78    5215
46.8     5289
46.82    5265
46.84    5270
46.86    5245
46.88    5234
46.9     5079
46.92    5251
46.94    5219
46.96    5172
46.98    5036
47.0     5121
47.02    5088
47.04    5077
47.06    5206
47.08    5145
47.1     5155
47.12    5145
47.14    5058
47.16    5073
47.18    5058
47.2     5063
47.22    5151
47.24    5093
47.26    5079
47.28    5121
47.3     5032
47.32    5011
47.34    5030
47.36    5028
47.38    5084
47.4     4996
47.42    4993
47.44    4904
47.46    5010
47.48    5017
47.5     4926
47.52    4899
47.54    4997
47.56    4901
47.58    4906
47.6     4939
47.62    4851
47.64    5008
47.66    4947
47.68    4914
47.7     4959
47.72    4977
47.74    4884
47.76    4888
47.78    4847
47.8     4900
47.82    4921
47.84    4943
47.86    4757
47.88    4788
47.9     4815
47.92    4861
47.94    4804
47.96    4834
47.98    4756
48.0     4801
48.02    4658
48.04    4779
48.06    4750
48.08    4818
48.1     4771
48.12    4828
48.14    4796
48.16    4842
48.18    4713
48.2     4727
48.22    4643
48.24    4768
48.26    4737
48.28    4708
48.3     4707
48.32    4622
48.34    4667
48.36    4711
48.38    4749
48.4     4750
48.42    4714
48.44    4733
48.46    4688
48.48    4687
48.5     4683
48.52    4811
48.54    4725
48.56    4782
48.58    4778
48.6     4725
48.62    4809
48.64    4781
48.66    4897
48.68    4850
48.7     4729
48.72    4793
48.74    4736
48.76    4736
48.78    4758
48.8     4873
48.82    4826
48.84    4789
48.86    4719
48.88    4684
48.9     4777
48.92    4803
48.94    4785
48.96    4675
48.98    4790
49.0     4711
49.02    4805
49.04    4813
49.06    4799
49.08    4704
49.1     4711
49.12    4771
49.14    4868
49.16    4783
49.18    4725
49.2     4877
49.22    4841
49.24    4784
49.26    4769
49.28    4773
49.3     4822
49.32    4789
49.34    4746
49.36    4790
49.38    4950
49.4     4891
49.42    4895
49.44    4889
49.46    4830
49.48    4836
49.5     4828
49.52    4868
49.54    4864
49.56    4937
49.58    4955
49.6     5007
49.62    4896
49.64    5037
49.66    4994
49.68    5111
49.7     5064
49.72    5185
49.74    5170
49.76    5292
49.78    5360
49.8     5303
49.82    5402
49.84    5524
49.86    5633
49.88    5594
49.9     5842
49.92    5779
49.94    5874
49.96    5817
49.98    6036
50.0     6142
50.02    6285
50.04    6323
50.06    6494
50.08    6677
50.1     6806
50.12    6884
50.14    6997
50.16    7055
50.18    7177
50.2     7331
50.22    7569
50.24    7730
50.26    7798
50.28    7832
50.3     8264
50.32    8361
50.34    8331
50.36    8681
50.38    9019
50.4     8869
50.42    9056
50.44    9021
50.46    9396
50.48    9413
50.5     9592
50.52    9843
50.54    9856
50.56    10106
50.58    10313
50.6     10336
50.62    10446
50.64    10503
50.66    10626
50.68    10773
50.7     10864
50.72    10950
50.74    11229
50.76    11205
50.78    11231
50.8     11322
50.82    11573
50.84    11584
50.86    11568
50.88    11686
50.9     11674
50.92    11564
50.94    11794
50.96    11615
50.98    11567
51.0     11652
51.02    11748
51.04    11691
51.06    11756
51.08    11633
51.1     11635
51.12    11504
51.14    11468
51.16    11465
51.18    11313
51.2     11182
51.22    11104
51.24    10991
51.26    10911
51.28    10853
51.3     10767
51.32    10739
51.34    10565
51.36    10454
51.38    10315
51.4     10189
51.42    9979
51.44    9886
51.46    9747
51.48    9553
51.5     9278
51.52    9144
51.54    9135
51.56    8882
51.58    8630
51.6     8456
51.62    8435
51.64    8214
51.66    8187
51.68    8014
51.7     7666
51.72    7602
51.74    7649
51.76    7463
51.78    7368
51.8     7097
51.82    6918
51.84    6830
51.86    6712
51.88    6671
51.9     6644
51.92    6306
51.94    6244
51.96    6160
51.98    6103
52.0     5936
52.02    5893
52.04    5722
52.06    5779
52.08    5662
52.1     5586
52.12    5476
52.14    5535
52.16    5383
52.18    5373
52.2     5303
52.22    5304
52.24    5292
52.26    5151
52.28    5206
52.3     5156
52.32    5267
52.34    5176
52.36    5132
52.38    5171
52.4     5105
52.42    5298
52.44    5117
52.46    5215
52.48    5192
52.5     5144
52.52    5194
52.54    5267
52.56    5409
52.58    5362
52.6     5328
52.62    5396
52.64    5441
52.66    5505
52.68    5590
52.7     5708
52.72    5650
52.74    5686
52.76    5865
52.78    5918
52.8     5927
52.82    5888
52.84    6037
52.86    6108
52.88    6079
52.9     6182
52.92    6137
52.94    6328
52.96    6375
52.98    6430
53.0     6468
53.02    6459
53.04    6560
53.06    6616
53.08    6769
53.1     6634
53.12    6797
53.14    6647
53.16    6795
53.18    6897
53.2     6911
53.22    6884
53.24    6852
53.26    7008
53.28    6957
53.3     6950
53.32    7097
53.34    6988
53.36    6991
53.38    6984
53.4     7026
53.42    6915
53.44    7005
53.46    6912
53.48    7036
53.5     7007
53.52    7052
53.54    6971
53.56    6887
53.58    6956
53.6     6805
53.62    6880
53.64    6718
53.66    6698
53.68    6676
53.7     6735
53.72    6792
53.74    6710
53.76    6592
53.78    6458
53.8     6457
53.82    6343
53.84    6368
53.86    6322
53.88    6193
53.9     6050
53.92    6060
53.94    6066
53.96    5933
53.98    5914
54.0     5760
54.02    5688
54.04    5700
54.06    5551
54.08    5518
54.1     5487
54.12    5509
54.14    5336
54.16    5290
54.18    5208
54.2     5096
54.22    5134
54.24    5044
54.26    4856
54.28    4880
54.3     4792
54.32    4735
54.34    4661
54.36    4534
54.38    4624
54.4     4479
54.42    4449
54.44    4523
54.46    4414
54.48    4350
54.5     4185
54.52    4251
54.54    4181
54.56    4148
54.58    4129
54.6     4079
54.62    4018
54.64    4020
54.66    3975
54.68    3873
54.7     3869
54.72    3839
54.74    3848
54.76    3798
54.78    3804
54.8     3694
54.82    3741
54.84    3655
54.86    3710
54.88    3738
54.9     3676
54.92    3569
54.94    3691
54.96    3701
54.98    3687
55.0     3672
55.02    3600
55.04    3552
55.06    3587
55.08    3595
55.1     3552
55.12    3582
55.14    3625
55.16    3597
55.18    3632
55.2     3656
55.22    3580
55.24    3569
55.26    3621
55.28    3570
55.3     3582
55.32    3513
55.34    3504
55.36    3599
55.38    3563
55.4     3496
55.42    3443
55.44    3506
55.46    3475
55.48    3510
55.5     3437
55.52    3514
55.54    3432
55.56    3442
55.58    3471
55.6     3491
55.62    3402
55.64    3493
55.66    3412
55.68    3455
55.7     3431
55.72    3460
55.74    3431
55.76    3401
55.78    3438
55.8     3426
55.82    3368
55.84    3404
55.86    3453
55.88    3344
55.9     3390
55.92    3332
55.94    3368
55.96    3436
55.98    3385
56.0     3304
56.02    3350
56.04    3290
56.06    3409
56.08    3397
56.1     3329
56.12    3370
56.14    3321
56.16    3349
56.18    3378
56.2     3392
56.22    3357
56.24    3371
56.26    3324
56.28    3355
56.3     3254
56.32    3258
56.34    3309
56.36    3307
56.38    3301
56.4     3304
56.42    3191
56.44    3251
56.46    3259
56.48    3289
56.5     3239
56.52    3303
56.54    3214
56.56    3233
56.58    3238
56.6     3312
56.62    3229
56.64    3232
56.66    3257
56.68    3294
56.7     3216
56.72    3222
56.74    3251
56.76    3257
56.78    3267
56.8     3251
56.82    3140
56.84    3139
56.86    3186
56.88    3160
56.9     3252
56.92    3193
56.94    3247
56.96    3185
56.98    3130
57.0     3198
57.02    3248
57.04    3224
57.06    3219
57.08    3219
57.1     3177
57.12    3246
57.14    3301
57.16    3214
57.18    3222
57.2     3234
57.22    3184
57.24    3193
57.26    3177
57.28    3171
57.3     3225
57.32    3104
57.34    3174
57.36    3151
57.38    3130
57.4     3242
57.42    3220
57.44    3187
57.46    3133
57.48    3211
57.5     3234
57.52    3200
57.54    3161
57.56    3187
57.58    3099
57.6     3142
57.62    3106
57.64    3076
57.66    3049
57.68    3159
57.7     3132
57.72    3099
57.74    3107
57.76    3096
57.78    3092
57.8     3057
57.82    3009
57.84    3004
57.86    3123
57.88    3079
57.9     3116
57.92    3155
57.94    3107
57.96    3099
57.98    3058
58.0     3113
58.02    3026
58.04    3063
58.06    3101
58.08    3104
58.1     3098
58.12    3030
58.14    3090
58.16    3146
58.18    3174
58.2     3068
58.22    3042
58.24    3068
58.26    3111
58.28    3028
58.3     3133
58.32    3096
58.34    3086
58.36    3036
58.38    2988
58.4     3050
58.42    3097
58.44    2991
58.46    3095
58.48    3113
58.5     3043
58.52    3021
58.54    3004
58.56    3030
58.58    3019
58.6     3066
58.62    3010
58.64    3022
58.66    2998
58.68    3045
58.7     3017
58.72    3024
58.74    3071
58.76    3002
58.78    3055
58.8     3021
58.82    3015
58.84    2945
58.86    2949
58.88    3006
58.9     2954
58.92    3054
58.94    3035
58.96    2999
58.98    3045
59.0     2989
59.02    2979
59.04    3006
59.06    3036
59.08    2989
59.1     3019
59.12    2961
59.14    3019
59.16    2965
59.18    2980
59.2     2959
59.22    2960
59.24    2950
59.26    2999
59.28    2927
59.3     2995
59.32    3011
59.34    2922
59.36    2911
59.38    3011
59.4     2964
59.42    2984
59.44    2932
59.46    2987
59.48    3018
59.5     2967
59.52    2997
59.54    2968
59.56    2961
59.58    2968
59.6     3025
59.62    3018
59.64    3021
59.66    2906
59.68    2905
59.7     2883
59.72    2986
59.74    2897
59.76    2966
59.78    2976
59.8     2975
59.82    2884
59.84    2870
59.86    2949
59.88    3002
59.9     2998
59.92    2923
59.94    2894
59.96    2825
59.98    2899
60.0     2959
60.02    2955
60.04    2942
60.06    2947
60.08    2926
60.1     2959
60.12    2946
60.14    2929
60.16    2929
60.18    2987
60.2     2828
60.22    2870
60.24    2870
60.26    2913
60.28    2887
60.3     2887
60.32    2978
60.34    2933
60.36    2859
60.38    2886
60.4     2910
60.42    2939
60.44    2954
60.46    2888
60.48    2862
60.5     2945
60.52    2912
60.54    2933
60.56    2879
60.58    2938
60.6     2848
60.62    2859
60.64    2883
60.66    2919
60.68    2903
60.7     2984
60.72    2885
60.74    2896
60.76    2874
60.78    2889
60.8     2876
60.82    2881
60.84    2890
60.86    2877
60.88    2891
60.9     2881
60.92    2835
60.94    2877
60.96    3003
60.98    2879
61.0     2910
61.02    2892
61.04    2961
61.06    2919
61.08    2905
61.1     2933
61.12    2917
61.14    2890
61.16    2914
61.18    2860
61.2     2897
61.22    2936
61.24    2953
61.26    2916
61.28    2975
61.3     3025
61.32    3064
61.34    2981
61.36    2935
61.38    2965
61.4     3018
61.42    3016
61.44    3019
61.46    2993
61.48    2978
61.5     3046
61.52    2965
61.54    3036
61.56    3013
61.58    3029
61.6     3004
61.62    3057
61.64    3104
61.66    3058
61.68    3013
61.7     3102
61.72    3017
61.74    3015
61.76    3098
61.78    3177
61.8     3121
61.82    3160
61.84    3149
61.86    3177
61.88    3154
61.9     3238
61.92    3247
61.94    3206
61.96    3203
61.98    3239
62.0     3244
62.02    3253
62.04    3321
62.06    3244
62.08    3319
62.1     3276
62.12    3271
62.14    3302
62.16    3293
62.18    3313
62.2     3382
62.22    3384
62.24    3313
62.26    3380
62.28    3405
62.3     3415
62.32    3335
62.34    3347
62.36    3370
62.38    3472
62.4     3430
62.42    3373
62.44    3362
62.46    3391
62.48    3446
62.5     3431
62.52    3379
62.54    3389
62.56    3499
62.58    3424
62.6     3478
62.62    3427
62.64    3309
62.66    3385
62.68    3433
62.7     3337
62.72    3370
62.74    3299
62.76    3417
62.78    3424
62.8     3385
62.82    3372
62.84    3427
62.86    3369
62.88    3313
62.9     3300
62.92    3339
62.94    3316
62.96    3352
62.98    3339
63.0     3251
63.02    3285
63.04    3232
63.06    3250
63.08    3203
63.1     3212
63.12    3168
63.14    3167
63.16    3182
63.18    3186
63.2     3155
63.22    3148
63.24    3173
63.26    3129
63.28    3149
63.3     3106
63.32    3056
63.34    3073
63.36    3084
63.38    3060
63.4     3101
63.42    3011
63.44    2985
63.46    3006
63.48    2991
63.5     2990
63.52    2972
63.54    2952
63.56    2884
63.58    2889
63.6     2921
63.62    2920
63.64    2908
63.66    2904
63.68    2871
63.7     2874
63.72    2908
63.74    2893
63.76    2841
63.78    2812
63.8     2825
63.82    2854
63.84    2856
63.86    2785
63.88    2834
63.9     2819
63.92    2766
63.94    2764
63.96    2785
63.98    2775
64.0     2789
64.02    2730
64.04    2725
64.06    2817
64.08    2784
64.1     2797
64.12    2787
64.14    2784
64.16    2707
64.18    2680
64.2     2718
64.22    2771
64.24    2765
64.26    2715
64.28    2691
64.3     2786
64.32    2743
64.34    2729
64.36    2796
64.38    2698
64.4     2749
64.42    2767
64.44    2682
64.46    2661
64.48    2702
64.5     2766
64.52    2751
64.54    2718
64.56    2732
64.58    2733
64.6     2751
64.62    2745
64.64    2783
64.66    2727
64.68    2678
64.7     2733
64.72    2717
64.74    2688
64.76    2736
64.78    2709
64.8     2720
64.82    2756
64.84    2704
64.86    2707
64.88    2695
64.9     2649
64.92    2757
64.94    2734
64.96    2712
64.98    2734
65.0     2739
65.02    2765
65.04    2730
65.06    2744
65.08    2718
65.1     2720
65.12    2739
65.14    2770
65.16    2747
65.18    2761
65.2     2765
65.22    2800
65.24    2737
65.26    2685
65.28    2742
65.3     2753
65.32    2709
65.34    2731
65.36    2725
65.38    2768
65.4     2782
65.42    2787
65.44    2739
65.46    2729
65.48    2733
65.5     2749
65.52    2787
65.54    2751
65.56    2742
65.58    2758
65.6     2752
65.62    2796
65.64    2764
65.66    2712
65.68    2725
65.7     2775
65.72    2850
65.74    2721
65.76    2816
65.78    2788
65.8     2851
65.82    2833
65.84    2815
65.86    2783
65.88    2746
65.9     2809
65.92    2785
65.94    2735
65.96    2729
65.98    2813
66.0     2834
66.02    2811
66.04    2802
66.06    2789
66.08    2834
66.1     2843
66.12    2873
66.14    2891
66.16    2819
66.18    2876
66.2     2880
66.22    2870
66.24    2837
66.26    2880
66.28    2887
66.3     2884
66.32    2896
66.34    2899
66.36    2896
66.38    2933
66.4     2942
66.42    2907
66.44    2884
66.46    2955
66.48    2922
66.5     2969
66.52    3023
66.54    2970
66.56    2917
66.58    2977
66.6     2956
66.62    2984
66.64    2977
66.66    3008
66.68    2970
66.7     2999
66.72    3026
66.74    3016
66.76    3007
66.78    2997
66.8     2952
66.82    2940
66.84    2966
66.86    2946
66.88    3042
66.9     3013
66.92    2999
66.94    3001
66.96    3080
66.98    3054
67.0     3011
67.02    3035
67.04    3070
67.06    3069
67.08    3052
67.1     3084
67.12    3106
67.14    3090
67.16    3109
67.18    3100
67.2     3068
67.22    3096
67.24    3116
67.26    3122
67.28    3146
67.3     3179
67.32    3197
67.34    3197
67.36    3217
67.38    3219
67.4     3273
67.42    3308
67.44    3259
67.46    3281
67.48    3336
67.5     3408
67.52    3418
67.54    3419
67.56    3490
67.58    3492
67.6     3549
67.62    3598
67.64    3617
67.66    3689
67.68    3748
67.7     3795
67.72    3851
67.74    3871
67.76    3923
67.78    4017
67.8     4090
67.82    4152
67.84    4282
67.86    4341
67.88    4331
67.9     4430
67.92    4515
67.94    4562
67.96    4642
67.98    4709
68.0     4748
68.02    4885
68.04    5032
68.06    5125
68.08    5221
68.1     5173
68.12    5300
68.14    5431
68.16    5414
68.18    5619
68.2     5717
68.22    5739
68.24    5788
68.26    5882
68.28    6023
68.3     6044
68.32    6164
68.34    6286
68.36    6333
68.38    6434
68.4     6628
68.42    6634
68.44    6678
68.46    6743
68.48    6754
68.5     6861
68.52    7062
68.54    7047
68.56    7091
68.58    7178
68.6     7226
68.62    7335
68.64    7293
68.66    7326
68.68    7456
68.7     7512
68.72    7562
68.74    7641
68.76    7569
68.78    7569
68.8     7662
68.82    7582
68.84    7647
68.86    7645
68.88    7607
68.9     7704
68.92    7750
68.94    7830
68.96    7706
68.98    7655
69.0     7642
69.02    7626
69.04    7632
69.06    7557
69.08    7491
69.1     7623
69.12    7543
69.14    7455
69.16    7430
69.18    7342
69.2     7275
69.22    7319
69.24    7206
69.26    7101
69.28    7034
69.3     6999
69.32    6989
69.34    6919
69.36    6893
69.38    6743
69.4     6774
69.42    6698
69.44    6637
69.46    6623
69.48    6567
69.5     6470
69.52    6400
69.54    6475
69.56    6299
69.58    6222
69.6     6147
69.62    6086
69.64    6068
69.66    6067
69.68    6043
69.7     5934
69.72    5845
69.74    5896
69.76    5923
69.78    5971
69.8     5931
69.82    5757
69.84    5826
69.86    5733
69.88    5799
69.9     5853
69.92    5789
69.94    5758
69.96    5744
69.98    5817
70.0     5781
70.02    5822
70.04    5825
70.06    5900
70.08    5930
70.1     5960
70.12    6015
70.14    5982
70.16    6097
70.18    6060
70.2     6165
70.22    6266
70.24    6322
70.26    6309
70.28    6357
70.3     6447
70.32    6403
70.34    6578
70.36    6546
70.38    6636
70.4     6720
70.42    6739
70.44    6865
70.46    6952
70.48    6961
70.5     6922
70.52    7004
70.54    7211
70.56    7309
70.58    7229
70.6     7326
70.62    7441
70.64    7492
70.66    7485
70.68    7476
70.7     7626
70.72    7663
70.74    7716
70.76    7722
70.78    7731
70.8     7745
70.82    7665
70.84    7807
70.86    7821
70.88    7851
70.9     7903
70.92    7965
70.94    7945
70.96    7981
70.98    7888
71.0     7786
71.02    7802
71.04    7838
71.06    7857
71.08    7887
71.1     7877
71.12    7765
71.14    7747
71.16    7752
71.18    7619
71.2     7610
71.22    7580
71.24    7623
71.26    7542
71.28    7397
71.3     7324
71.32    7289
71.34    7173
71.36    7055
71.38    6999
71.4     7019
71.42    6915
71.44    6877
71.46    6804
71.48    6644
71.5     6562
71.52    6532
71.54    6452
71.56    6327
71.58    6191
71.6     6171
71.62    6058
71.64    5942
71.66    5855
71.68    5731
71.7     5612
71.72    5466
71.74    5438
71.76    5383
71.78    5299
71.8     5190
71.82    5101
71.84    5019
71.86    4942
71.88    4809
71.9     4768
71.92    4671
71.94    4622
71.96    4512
71.98    4443
72.0     4364
72.02    4290
72.04    4134
72.06    4090
72.08    4053
72.1     3973
72.12    3930
72.14    3797
72.16    3758
72.18    3700
72.2     3677
72.22    3549
72.24    3490
72.26    3492
72.28    3439
72.3     3324
72.32    3293
72.34    3319
72.36    3232
72.38    3203
72.4     3190
72.42    3191
72.44    3078
72.46    3072
72.48    3024
72.5     2987
72.52    2953
72.54    2991
72.56    2953
72.58    2917
72.6     2866
72.62    2900
72.64    2877
72.66    2841
72.68    2752
72.7     2737
72.72    2734
72.74    2745
72.76    2748
72.78    2697
72.8     2745
72.82    2666
72.84    2712
72.86    2691
72.88    2664
72.9     2698
72.92    2648
72.94    2592
72.96    2674
72.98    2676
73.0     2631
73.02    2654
73.04    2615
73.06    2573
73.08    2612
73.1     2613
73.12    2623
73.14    2576
73.16    2535
73.18    2596
73.2     2598
73.22    2572
73.24    2520
73.26    2516
73.28    2527
73.3     2582
73.32    2526
73.34    2518
73.36    2542
73.38    2532
73.4     2520
73.42    2507
73.44    2517
73.46    2539
73.48    2493
73.5     2499
73.52    2519
73.54    2524
73.56    2511
73.58    2523
73.6     2485
73.62    2490
73.64    2464
73.66    2449
73.68    2454
73.7     2504
73.72    2468
73.74    2473
73.76    2425
73.78    2462
73.8     2445
73.82    2432
73.84    2436
73.86    2451
73.88    2438
73.9     2392
73.92    2378
73.94    2371
73.96    2389
73.98    2423
74.0     2395
74.02    2395
74.04    2395
74.06    2419
74.08    2387
74.1     2334
74.12    2363
74.14    2340
74.16    2329
74.18    2329
74.2     2345
74.22    2351
74.24    2309
74.26    2330
74.28    2309
74.3     2321
74.32    2342
74.34    2321
74.36    2340
74.38    2327
74.4     2364
74.42    2333
74.44    2314
74.46    2324
74.48    2313
74.5     2285
74.52    2301
74.54    2300
74.56    2316
74.58    2350
74.6     2357
74.62    2311
74.64    2315
74.66    2303
74.68    2260
74.7     2297
74.72    2249
74.74    2284
74.76    2295
74.78    2302
74.8     2306
74.82    2285
74.84    2258
74.86    2294
74.88    2248
74.9     2287
74.92    2312
74.94    2283
74.96    2216
74.98    2212
75.0     2239
75.02    2212
75.04    2237
75.06    2256
75.08    2237
75.1     2214
75.12    2235
75.14    2256
75.16    2229
75.18    2243
75.2     2221
75.22    2249
75.24    2214
75.26    2169
75.28    2241
75.3     2204
75.32    2176
75.34    2226
75.36    2262
75.38    2217
75.4     2276
75.42    2244
75.44    2231
75.46    2197
75.48    2181
75.5     2207
75.52    2224
75.54    2163
75.56    2119
75.58    2172
75.6     2165
75.62    2195
75.64    2172
75.66    2143
75.68    2186
75.7     2181
75.72    2256
75.74    2238
75.76    2137
75.78    2169
75.8     2178
75.82    2168
75.84    2175
75.86    2133
75.88    2155
75.9     2136
75.92    2174
75.94    2169
75.96    2153
75.98    2153
76.0     2137
76.02    2152
76.04    2145
76.06    2129
76.08    2129
76.1     2141
76.12    2129
76.14    2176
76.16    2139
76.18    2176
76.2     2201
76.22    2211
76.24    2178
76.26    2126
76.28    2104
76.3     2102
76.32    2068
76.34    2102
76.36    2108
76.38    2086
76.4     2130
76.42    2137
76.44    2133
76.46    2170
76.48    2124
76.5     2100
76.52    2107
76.54    2091
76.56    2099
76.58    2092
76.6     2138
76.62    2147
76.64    2098
76.66    2124
76.68    2129
76.7     2107
76.72    2120
76.74    2153
76.76    2153
76.78    2091
76.8     2119
76.82    2076
76.84    2091
76.86    2075
76.88    2011
76.9     2051
76.92    2087
76.94    2060
76.96    2088
76.98    2081
77.0     2098
77.02    2117
77.04    2114
77.06    2097
77.08    2099
77.1     2065
77.12    2087
77.14    2064
77.16    2057
77.18    2066
77.2     2044
77.22    2071
77.24    2087
77.26    2168
77.28    2166
77.3     2170
77.32    2103
77.34    2151
77.36    2144
77.38    2161
77.4     2149
77.42    2143
77.44    2077
77.46    2137
77.48    2186
77.5     2182
77.52    2181
77.54    2180
77.56    2166
77.58    2207
77.6     2210
77.62    2217
77.64    2232
77.66    2260
77.68    2262
77.7     2298
77.72    2285
77.74    2289
77.76    2297
77.78    2329
77.8     2376
77.82    2380
77.84    2380
77.86    2419
77.88    2417
77.9     2436
77.92    2424
77.94    2436
77.96    2477
77.98    2501
78.0     2537
78.02    2570
78.04    2509
78.06    2609
78.08    2689
78.1     2673
78.12    2633
78.14    2657
78.16    2724
78.18    2727
78.2     2790
78.22    2758
78.24    2742
78.26    2853
78.28    2880
78.3     2879
78.32    2922
78.34    2933
78.36    2931
78.38    2917
78.4     2992
78.42    3007
78.44    3027
78.46    3041
78.48    3063
78.5     3052
78.52    3066
78.54    3102
78.56    3130
78.58    3152
78.6     3165
78.62    3210
78.64    3272
78.66    3229
78.68    3260
78.7     3266
78.72    3241
78.74    3275
78.76    3239
78.78    3311
78.8     3311
78.82    3256
78.84    3269
78.86    3264
78.88    3318
78.9     3257
78.92    3323
78.94    3410
78.96    3315
78.98    3307
79.0     3347
79.02    3336
79.04    3306
79.06    3279
79.08    3375
79.1     3302
79.12    3277
79.14    3299
79.16    3223
79.18    3234
79.2     3253
79.22    3203
79.24    3206
79.26    3166
79.28    3185
79.3     3182
79.32    3134
79.34    3135
79.36    3108
79.38    3081
79.4     3042
79.42    2984
79.44    3008
79.46    2991
79.48    3034
79.5     2998
79.52    2930
79.54    2915
79.56    2845
79.58    2839
79.6     2869
79.62    2786
79.64    2766
79.66    2748
79.68    2774
79.7     2766
79.72    2690
79.74    2666
79.76    2635
79.78    2655
79.8     2592
79.82    2604
79.84    2567
79.86    2552
79.88    2504
79.9     2412
79.92    2465
79.94    2436
79.96    2385
79.98    2360
80.0     2365
80.02    2300
80.04    2307
80.06    2347
80.08    2271
80.1     2233
80.12    2218
80.14    2215
80.16    2164
80.18    2192
80.2     2123
80.22    2121
80.24    2123
80.26    2123
80.28    2106
80.3     2081
80.32    2090
80.34    2023
80.36    2026
80.38    2051
80.4     2044
80.42    2044
80.44    2035
80.46    2023
80.48    1995
80.5     1983
80.52    1984
80.54    1970
80.56    1972
80.58    1926
80.6     1923
80.62    1924
80.64    1895
80.66    1912
80.68    1906
80.7     1875
80.72    1919
80.74    1884
80.76    1883
80.78    1840
80.8     1921
80.82    1915
80.84    1886
80.86    1833
80.88    1810
80.9     1772
80.92    1794
80.94    1863
80.96    1796
80.98    1831
81.0     1801
81.02    1816
81.04    1860
81.06    1818
81.08    1774
81.1     1820
81.12    1860
81.14    1807
81.16    1798
81.18    1807
81.2     1810
81.22    1803
81.24    1819
81.26    1811
81.28    1793
81.3     1794
81.32    1829
81.34    1789
81.36    1776
81.38    1783
81.4     1790
81.42    1793
81.44    1762
81.46    1778
81.48    1789
81.5     1792
81.52    1787
81.54    1792
81.56    1815
81.58    1782
81.6     1805
81.62    1758
81.64    1840
81.66    1828
81.68    1776
81.7     1798
81.72    1786
81.74    1791
81.76    1763
81.78    1825
81.8     1802
81.82    1774
81.84    1787
81.86    1787
81.88    1782
81.9     1741
81.92    1756
81.93    1748
81.96    1698
81.98    1741
82.0     1764
82.02    1745
82.04    1725
82.06    1739
82.08    1760
82.1     1797
82.12    1748
82.14    1758
82.16    1789
82.18    1811
82.2     1787
82.22    1741
82.24    1765
82.26    1768
82.28    1756
82.3     1739
82.32    1754
82.34    1743
82.36    1744
82.38    1745
82.4     1783
82.42    1741
82.43    1774
82.46    1777
82.48    1763
82.5     1766
82.52    1755
82.54    1746
82.56    1749
82.58    1742
82.6     1758
82.62    1768
82.64    1742
82.66    1759
82.68    1760
82.7     1761
82.72    1712
82.74    1727
82.76    1750
82.78    1732
82.8     1775
82.82    1734
82.84    1730
82.86    1739
82.88    1725
82.9     1759
82.92    1744
82.93    1747
82.96    1734
82.98    1733
83.0     1762
83.02    1781
83.04    1722
83.06    1763
83.08    1789
83.1     1786
83.12    1770
83.14    1757
83.16    1720
83.18    1784
83.2     1784
83.22    1756
83.24    1765
83.26    1783
83.28    1794
83.3     1798
83.32    1804
83.34    1802
83.36    1772
83.38    1810
83.4     1796
83.42    1809
83.43    1862
83.46    1823
83.48    1839
83.5     1824
83.52    1849
83.54    1841
83.56    1860
83.58    1858
83.6     1895
83.62    1878
83.64    1841
83.66    1884
83.68    1871
83.7     1939
83.72    1935
83.74    1905
83.76    1939
83.78    1940
83.8     1900
83.82    1943
83.84    1954
83.86    1967
83.88    1943
83.9     1959
83.92    1953
83.93    2045
83.96    2021
83.98    1975
84.0     2042
84.02    2083
84.04    2027
84.06    2051
84.08    2040
84.1     2062
84.12    2103
84.14    2060
84.16    2072
84.18    2094
84.2     2083
84.22    2103
84.24    2116
84.26    2160
84.28    2160
84.3     2202
84.32    2195
84.34    2211
84.36    2139
84.38    2153
84.4     2178
84.42    2198
84.43    2200
84.46    2197
84.48    2257
84.5     2242
84.52    2222
84.54    2185
84.56    2291
84.58    2254
84.6     2253
84.62    2235
84.64    2283
84.66    2220
84.68    2237
84.7     2256
84.72    2265
84.74    2222
84.76    2290
84.78    2241
84.8     2248
84.82    2186
84.84    2254
84.86    2270
84.88    2294
84.9     2265
84.92    2231
84.93    2217
84.96    2263
84.98    2236
85.0     2226
85.02    2238
85.04    2200
85.06    2158
85.08    2177
85.1     2202
85.12    2203
85.14    2185
85.16    2167
85.18    2146
85.2     2146
85.22    2155
85.24    2150
85.26    2088
85.28    2103
85.3     2154
85.32    2123
85.34    2139
85.36    2103
85.38    2113
85.4     2091
85.42    2081
85.43    2002
85.46    2068
85.48    2029
85.5     2089
85.52    2014
85.54    1941
85.56    1956
85.58    1988
85.6     1962
85.62    1915
85.64    2000
85.66    1910
85.68    1915
85.7     1928
85.72    1893
85.74    1948
85.76    1915
85.78    1892
85.8     1890
85.82    1850
85.84    1912
85.86    1847
85.88    1811
85.9     1811
85.92    1769
85.93    1791
85.96    1794
85.98    1763
86.0     1753
86.02    1769
86.04    1799
86.06    1756
86.08    1784
86.1     1746
86.12    1738
86.14    1759
86.16    1780
86.18    1712
86.2     1715
86.22    1675
86.24    1665
86.26    1710
86.28    1736
86.3     1694
86.32    1672
86.34    1700
86.36    1697
86.38    1622
86.4     1588
86.42    1645
86.43    1644
86.46    1631
86.48    1662
86.5     1650
86.52    1632
86.54    1685
86.56    1646
86.58    1657
86.6     1637
86.62    1632
86.64    1649
86.66    1601
86.68    1642
86.7     1613
86.72    1644
86.74    1594
86.76    1679
86.78    1624
86.8     1619
86.82    1641
86.84    1617
86.86    1607
86.88    1663
86.9     1576
86.92    1653
86.93    1619
86.96    1645
86.98    1618
87.0     1603
87.02    1636
87.04    1656
87.06    1609
87.08    1600
87.1     1589
87.12    1592
87.14    1562
87.16    1557
87.18    1612
87.2     1580
87.22    1571
87.24    1598
87.26    1583
87.28    1588
87.3     1604
87.32    1609
87.34    1582
87.36    1589
87.38    1602
87.4     1600
87.42    1662
87.43    1584
87.46    1614
87.48    1623
87.5     1642
87.52    1583
87.54    1581
87.56    1623
87.58    1581
87.6     1608
87.62    1643
87.64    1620
87.66    1621
87.68    1583
87.7     1643
87.72    1571
87.74    1632
87.76    1626
87.78    1618
87.8     1608
87.82    1599
87.84    1571
87.86    1591
87.88    1597
87.9     1559
87.92    1579
87.93    1568
87.96    1561
87.98    1576
88.0     1569
88.02    1596
88.04    1614
88.06    1573
88.08    1594
88.1     1598
88.12    1595
88.14    1593
88.16    1584
88.18    1587
88.2     1625
88.22    1611
88.24    1597
88.26    1584
88.28    1565
88.3     1569
88.32    1581
88.34    1574
88.36    1576
88.38    1592
88.4     1649
88.42    1568
88.43    1570
88.46    1526
88.48    1561
88.5     1535
88.52    1578
88.54    1566
88.56    1554
88.58    1567
88.6     1583
88.62    1578
88.64    1581
88.66    1539
88.68    1582
88.7     1564
88.72    1597
88.74    1567
88.76    1595
88.78    1547
88.8     1563
88.82    1559
88.84    1575
88.86    1573
88.88    1582
88.9     1573
88.92    1567
88.93    1585
88.96    1575
88.98    1572
89.0     1568
89.02    1589
89.04    1578
89.06    1595
89.08    1570
89.1     1582
89.12    1529
89.14    1573
89.16    1622
89.18    1580
89.2     1603
89.22    1553
89.24    1579
89.26    1551
89.28    1555
89.3     1587
89.32    1623
89.34    1622
89.36    1600
89.38    1649
89.4     1576
89.42    1607
89.43    1567
89.46    1580
89.48    1556
89.5     1557
89.52    1526
89.54    1547
89.56    1635
89.58    1600
89.6     1571
89.62    1574
89.64    1598
89.66    1591
89.68    1565
89.7     1594
89.72    1514
89.74    1582
89.76    1594
89.78    1515
89.8     1573
89.82    1605
89.84    1616
89.86    1615
89.88    1620
89.9     1651
89.92    1602
89.93    1616
89.96    1550
89.98    1594
90.0     1568
90.02    1578
90.04    1564
90.06    1584
90.08    1639
90.1     1591
90.12    1554
90.14    1611
90.16    1599
90.18    1556
90.2     1594
90.22    1626
90.24    1635
90.26    1599
90.28    1541
90.3     1554
90.32    1574
90.34    1571
90.36    1575
90.38    1628
90.4     1616
90.42    1624
90.43    1606
90.46    1577
90.48    1574
90.5     1647
90.52    1631
90.54    1643
90.56    1579
90.58    1584
90.6     1595
90.62    1609
90.64    1582
90.66    1559
90.68    1594
90.7     1597
90.72    1576
90.74    1579
90.76    1627
90.78    1608
90.8     1621
90.82    1570
90.84    1582
90.86    1638
90.88    1582
90.9     1605
90.92    1610
90.93    1627
90.96    1595
90.98    1642
91.0     1643
91.02    1601
91.04    1596
91.06    1585
91.08    1633
91.1     1621
91.12    1590
91.14    1621
91.16    1645
91.18    1615
91.2     1616
91.22    1657
91.24    1637
91.26    1643
91.28    1635
91.3     1571
91.32    1600
91.34    1673
91.36    1601
91.38    1632
91.4     1657
91.42    1659
91.43    1649
91.46    1581
91.48    1649
91.5     1643
91.52    1646
91.54    1696
91.56    1669
91.58    1659
91.6     1642
91.62    1633
91.64    1657
91.66    1632
91.68    1662
91.7     1639
91.72    1630
91.74    1614
91.76    1670
91.78    1636
91.8     1631
91.82    1647
91.84    1650
91.86    1646
91.88    1643
91.9     1656
91.92    1610
91.93    1649
91.96    1642
91.98    1657
92.0     1693
92.02    1688
92.04    1674
92.06    1645
92.08    1648
92.1     1639
92.12    1649
92.14    1680
92.16    1625
92.18    1650
92.2     1638
92.22    1667
92.24    1660
92.26    1728
92.28    1685
92.3     1691
92.32    1711
92.34    1714
92.36    1741
92.38    1691
92.4     1677
92.42    1720
92.43    1725
92.46    1709
92.48    1708
92.5     1722
92.52    1734
92.54    1739
92.56    1741
92.58    1687
92.6     1744
92.62    1710
92.64    1765
92.66    1768
92.68    1788
92.7     1758
92.72    1774
92.74    1770
92.76    1791
92.78    1798
92.8     1819
92.82    1788
92.84    1816
92.86    1807
92.88    1814
92.9     1864
92.92    1823
92.93    1877
92.96    1894
92.98    1909
93.0     1922
93.02    1915
93.04    1926
93.06    1996
93.08    1999
93.1     1963
93.12    2019
93.14    2021
93.16    2053
93.18    2083
93.2     2004
93.22    2055
93.24    2067
93.26    2173
93.28    2166
93.3     2193
93.32    2204
93.34    2180
93.36    2249
93.38    2233
93.4     2252
93.42    2323
93.43    2336
93.46    2379
93.48    2403
93.5     2417
93.52    2394
93.54    2413
93.56    2457
93.58    2532
93.6     2569
93.62    2633
93.64    2543
93.66    2644
93.68    2657
93.7     2694
93.72    2723
93.74    2703
93.76    2747
93.78    2766
93.8     2787
93.82    2837
93.84    2804
93.86    2852
93.88    2858
93.9     2888
93.92    2891
93.93    2915
93.96    2931
93.98    3005
94.0     2968
94.02    3012
94.04    3009
94.06    3052
94.08    3068
94.1     3090
94.12    3040
94.14    3110
94.16    3068
94.18    3098
94.2     3110
94.22    3158
94.24    3127
94.26    3223
94.28    3207
94.3     3219
94.32    3196
94.34    3279
94.36    3258
94.38    3255
94.4     3221
94.42    3239
94.43    3222
94.46    3300
94.48    3267
94.5     3220
94.52    3188
94.54    3219
94.56    3223
94.58    3263
94.6     3251
94.62    3227
94.64    3247
94.66    3251
94.68    3300
94.7     3194
94.72    3168
94.74    3141
94.76    3157
94.78    3134
94.8     3162
94.82    3097
94.84    3118
94.86    3132
94.88    3066
94.9     3026
94.92    2987
94.93    3029
94.96    2948
94.98    2949
95.0     2973
95.02    2985
95.04    2918
95.06    2920
95.08    2830
95.1     2891
95.12    2842
95.14    2815
95.16    2876
95.18    2821
95.2     2777
95.22    2765
95.24    2670
95.25    2748
95.28    2643
95.3     2695
95.32    2632
95.34    2611
95.36    2601
95.38    2542
95.4     2574
95.42    2527
95.43    2548
95.46    2473
95.48    2474
95.5     2457
95.52    2383
95.54    2345
95.56    2314
95.58    2330
95.6     2314
95.62    2306
95.64    2296
95.66    2277
95.68    2252
95.7     2234
95.72    2206
95.74    2147
95.75    2108
95.78    2166
95.8     2102
95.82    2089
95.84    2090
95.86    2053
95.88    2057
95.9     2061
95.92    1984
95.93    2017
95.96    1974
95.98    1997
96.0     1974
96.02    1949
96.04    1964
96.06    1887
96.08    1876
96.1     1850
96.12    1854
96.14    1841
96.16    1842
96.18    1845
96.2     1810
96.22    1848
96.24    1836
96.25    1807
96.28    1815
96.3     1812
96.32    1792
96.34    1831
96.36    1787
96.38    1717
96.4     1725
96.42    1730
96.43    1724
96.46    1730
96.48    1749
96.5     1736
96.52    1734
96.54    1700
96.56    1723
96.58    1713
96.6     1662
96.62    1703
96.64    1698
96.66    1707
96.68    1704
96.7     1708
96.72    1718
96.74    1671
96.75    1691
96.78    1685
96.8     1711
96.82    1693
96.84    1689
96.86    1696
96.88    1654
96.9     1684
96.92    1729
96.93    1710
96.96    1705
96.98    1671
97.0     1650
97.02    1668
97.04    1698
97.06    1662
97.08    1685
97.1     1658
97.12    1671
97.14    1639
97.16    1647
97.18    1699
97.2     1698
97.22    1707
97.24    1704
97.25    1633
97.28    1681
97.3     1674
97.32    1642
97.34    1665
97.36    1711
97.38    1679
97.4     1690
97.42    1682
97.43    1673
97.46    1685
97.48    1676
97.5     1684
97.52    1667
97.54    1677
97.56    1704
97.58    1667
97.6     1728
97.62    1686
97.64    1669
97.66    1645
97.68    1657
97.7     1660
97.72    1655
97.74    1657
97.75    1672
97.78    1663
97.8     1686
97.82    1687
97.84    1667
97.86    1668
97.88    1647
97.9     1657
97.92    1674
97.93    1649
97.96    1656
97.98    1618
98.0     1680
98.02    1655
98.04    1645
98.06    1666
98.08    1675
98.1     1702
98.12    1702
98.14    1712
98.16    1687
98.18    1664
98.2     1653
98.22    1660
98.24    1680
98.25    1686
98.28    1664
98.3     1702
98.32    1714
98.34    1703
98.36    1707
98.38    1693
98.4     1747
98.42    1728
98.43    1722
98.46    1737
98.48    1752
98.5     1745
98.52    1750
98.54    1773
98.56    1801
98.58    1781
98.6     1787
98.62    1767
98.64    1779
98.66    1805
98.68    1813
98.7     1825
98.72    1834
98.74    1832
98.75    1859
98.78    1840
98.8     1855
98.82    1860
98.84    1898
98.86    1919
98.88    1864
98.9     1894
98.92    1877
98.93    1891
98.96    1884
98.98    1948
99.0     1905
99.02    1947
99.04    1965
99.06    1964
99.08    1993
99.1     2004
99.12    2041
99.14    2048
99.16    2033
99.18    2008
99.2     2055
99.22    2053
99.24    2090
99.25    2131
99.28    2136
99.3     2119
99.32    2134
99.34    2163
99.36    2192
99.38    2170
99.4     2232
99.42    2258
99.43    2294
99.46    2218
99.48    2263
99.5     2314
99.52    2337
99.54    2337
99.56    2339
99.58    2347
99.6     2391
99.62    2391
99.64    2420
99.66    2373
99.68    2445
99.7     2422
99.72    2490
99.74    2487
99.75    2503
99.78    2527
99.8     2542
99.82    2465
99.84    2522
99.86    2620
99.88    2613
99.9     2566
99.92    2559
99.93    2602
99.96    2588
99.98    2604
100.0    2640
100.02   2656
100.04   2588
100.06   2643
100.08   2659
100.1    2652
100.12   2662
100.14   2680
100.16   2705
100.18   2758
100.2    2750
100.22   2687
100.24   2684
100.26   2739
100.28   2703
100.3    2723
100.32   2722
100.34   2699
100.36   2694
100.38   2701
100.4    2726
100.42   2732
100.44   2759
100.46   2758
100.48   2766
100.5    2706
100.52   2708
100.54   2734
100.56   2763
100.58   2765
100.6    2731
100.62   2749
100.64   2805
100.66   2728
100.68   2732
100.7    2782
100.72   2726
100.74   2779
100.76   2771
100.78   2742
100.8    2717
100.82   2684
100.84   2680
100.86   2741
100.88   2780
100.9    2709
100.92   2658
100.94   2668
100.96   2717
100.98   2730
101.0    2696
101.02   2696
101.04   2723
101.06   2723
101.08   2726
101.1    2722
101.12   2693
101.14   2689
101.16   2695
101.18   2656
101.2    2703
101.22   2627
101.24   2665
101.26   2643
101.28   2656
101.3    2659
101.32   2652
101.34   2633
101.36   2621
101.38   2672
101.4    2613
101.42   2602
101.44   2586
101.46   2569
101.48   2593
101.5    2558
101.52   2591
101.54   2547
101.56   2617
101.58   2578
101.6    2626
101.62   2591
101.64   2584
101.66   2534
101.68   2590
101.7    2575
101.72   2565
101.74   2518
101.76   2586
101.78   2545
101.8    2510
101.82   2547
101.84   2506
101.86   2583
101.88   2548
101.9    2506
101.92   2512
101.94   2536
101.96   2621
101.98   2543
102.0    2549
102.02   2559
102.04   2554
102.06   2505
102.08   2506
102.1    2541
102.12   2497
102.14   2465
102.16   2491
102.18   2500
102.2    2540
102.22   2482
102.24   2526
102.26   2432
102.28   2465
102.3    2457
102.32   2506
102.34   2457
102.36   2437
102.38   2416
102.4    2461
102.42   2501
102.44   2500
102.46   2417
102.48   2433
102.5    2427
102.52   2370
102.54   2373
102.56   2385
102.58   2386
102.6    2377
102.62   2395
102.64   2339
102.66   2352
102.68   2355
102.7    2375
102.72   2348
102.74   2262
102.76   2265
102.78   2306
102.8    2253
102.82   2231
102.84   2296
102.86   2278
102.88   2267
102.9    2277
102.92   2238
102.94   2188
102.96   2216
102.98   2179
103.0    2169
103.02   2119
103.04   2166
103.06   2157
103.08   2126
103.1    2135
103.12   2160
103.14   2144
103.16   2084
103.18   2059
103.2    2086
103.22   2124
103.24   2065
103.26   2042
103.28   2000
103.3    2016
103.32   2028
103.34   2009
103.36   1963
103.38   1974
103.4    1965
103.42   1937
103.44   1994
103.46   1962
103.48   1957
103.5    1901
103.52   1925
103.54   1967
103.56   1901
103.58   1898
103.6    1863
103.62   1845
103.64   1834
103.66   1858
103.68   1846
103.7    1858
103.72   1768
103.74   1774
103.76   1795
103.78   1793
103.8    1748
103.82   1744
103.84   1727
103.86   1746
103.88   1676
103.9    1715
103.92   1697
103.94   1715
103.96   1697
103.98   1711
104.0    1694
104.02   1688
104.04   1651
104.06   1659
104.08   1664
104.1    1677
104.12   1617
104.14   1629
104.16   1618
104.18   1662
104.2    1661
104.22   1632
104.24   1667
104.26   1593
104.28   1595
104.3    1603
104.32   1608
104.34   1616
104.36   1600
104.38   1579
104.4    1562
104.42   1581
104.44   1558
104.46   1579
104.48   1608
104.5    1579
104.52   1576
104.54   1536
104.56   1566
104.58   1546
104.6    1565
104.62   1575
104.64   1588
104.66   1545
104.68   1558
104.7    1514
104.72   1531
104.74   1543
104.76   1521
104.78   1564
104.8    1532
104.82   1582
104.84   1574
104.86   1526
104.88   1548
104.9    1520
104.92   1550
104.94   1567
104.96   1527
104.98   1534
105.0    1479
105.02   1540
105.04   1533
105.06   1523
105.08   1538
105.1    1553
105.12   1497
105.14   1522
105.16   1557
105.18   1493
105.2    1549
105.22   1529
105.24   1516
105.26   1543
105.28   1546
105.3    1556
105.32   1532
105.34   1487
105.36   1557
105.38   1516
105.4    1516
105.42   1544
105.44   1526
105.46   1527
105.48   1516
105.5    1516
105.52   1492
105.54   1538
105.56   1519
105.58   1502
105.6    1500
105.62   1492
105.64   1493
105.66   1506
105.68   1481
105.7    1505
105.72   1486
105.74   1497
105.76   1482
105.78   1471
105.8    1471
105.82   1480
105.84   1481
105.86   1501
105.88   1493
105.9    1477
105.92   1506
105.94   1522
105.96   1567
105.98   1529
106.0    1523
106.02   1483
106.04   1488
106.06   1501
106.08   1475
106.1    1478
106.12   1530
106.14   1504
106.16   1501
106.18   1501
106.2    1488
106.22   1487
106.24   1456
106.26   1450
106.28   1454
106.3    1492
106.32   1457
106.34   1490
106.36   1483
106.38   1479
106.4    1496
106.42   1493
106.44   1481
106.46   1481
106.48   1488
106.5    1536
106.52   1492
106.54   1528
106.56   1473
106.58   1493
106.6    1515
106.62   1451
106.64   1499
106.66   1465
106.68   1464
106.7    1496
106.72   1464
106.74   1524
106.76   1496
106.78   1462
106.8    1487
106.82   1503
106.84   1491
106.86   1502
106.88   1494
106.9    1536
106.92   1509
106.94   1528
106.96   1477
106.98   1551
107.0    1500
107.02   1505
107.04   1496
107.06   1483
107.08   1444
107.1    1442
107.12   1506
107.14   1484
107.16   1521
107.18   1495
107.2    1504
107.22   1520
107.24   1479
107.26   1428
107.28   1504
107.3    1520
107.32   1473
107.34   1495
107.36   1504
107.38   1489
107.4    1513
107.42   1458
107.44   1485
107.46   1510
107.48   1477
107.5    1489
107.52   1477
107.54   1525
107.56   1520
107.58   1502
107.6    1501
107.62   1521
107.64   1456
107.66   1505
107.68   1440
107.7    1489
107.72   1496
107.74   1503
107.76   1488
107.78   1501
107.8    1491
107.82   1506
107.84   1523
107.86   1498
107.88   1484
107.9    1474
107.92   1497
107.94   1488
107.96   1495
107.98   1506
108.0    1514
108.02   1541
108.04   1523
108.06   1482
108.08   1532
108.1    1500
108.12   1470
108.14   1516
108.16   1519
108.18   1538
108.2    1552
108.22   1503
108.24   1525
108.26   1515
108.28   1502
108.3    1520
108.32   1538
108.34   1496
108.36   1518
108.38   1555
108.4    1544
108.42   1527
108.44   1525
108.46   1525
108.48   1521
108.5    1552
108.52   1505
108.54   1526
108.56   1591
108.58   1549
108.6    1521
108.62   1530
108.64   1564
108.66   1536
108.68   1579
108.7    1582
108.72   1611
108.74   1592
108.76   1581
108.78   1607
108.8    1599
108.82   1609
108.84   1646
108.86   1582
108.88   1605
108.9    1607
108.92   1625
108.94   1580
108.96   1575
108.98   1604
109.0    1622
109.02   1617
109.04   1653
109.06   1658
109.08   1654
109.1    1652
109.12   1686
109.14   1658
109.16   1645
109.18   1684
109.2    1705
109.22   1679
109.24   1666
109.26   1706
109.28   1682
109.3    1694
109.32   1709
109.34   1746
109.36   1748
109.38   1730
109.4    1732
109.42   1709
109.44   1727
109.46   1715
109.48   1789
109.5    1746
109.52   1754
109.54   1748
109.56   1766
109.58   1764
109.6    1822
109.62   1778
109.64   1793
109.66   1788
109.68   1800
109.7    1807
109.72   1814
109.74   1809
109.76   1823
109.78   1771
109.8    1837
109.82   1818
109.84   1815
109.86   1862
109.88   1866
109.9    1834
109.92   1852
109.94   1835
109.96   1850
109.98   1873
110.0    1860
110.02   1820
110.04   1851
110.06   1865
110.08   1847
110.1    1847
110.12   1857
110.14   1888
110.16   1869
110.18   1880
110.2    1886
110.22   1901
110.24   1904
110.26   1904
110.28   1865
110.3    1872
110.32   1927
110.34   1926
110.36   1925
110.38   1934
110.4    1886
110.42   1912
110.44   1873
110.46   1890
110.48   1842
110.5    1843
110.52   1834
110.54   1888
110.56   1910
110.58   1839
110.6    1918
110.62   1892
110.64   1880
110.66   1847
110.68   1873
110.7    1816
110.72   1866
110.74   1883
110.76   1902
110.78   1877
110.8    1858
110.82   1854
110.84   1861
110.86   1895
110.88   1857
110.9    1906
110.92   1855
110.94   1846
110.96   1877
110.98   1817
111.0    1812
111.02   1832
111.04   1802
111.06   1797
111.08   1782
111.1    1840
111.12   1817
111.14   1803
111.16   1824
111.18   1806
111.2    1830
111.22   1814
111.24   1815
111.26   1798
111.28   1757
111.3    1768
111.32   1800
111.34   1769
111.36   1731
111.38   1745
111.4    1776
111.42   1735
111.44   1731
111.46   1719
111.48   1709
111.5    1752
111.52   1736
111.54   1718
111.56   1692
111.58   1689
111.6    1731
111.62   1695
111.64   1695
111.66   1697
111.68   1670
111.7    1686
111.72   1689
111.74   1725
111.76   1691
111.78   1671
111.8    1675
111.82   1672
111.84   1674
111.86   1693
111.88   1702
111.9    1641
111.92   1663
111.94   1671
111.96   1602
111.98   1625
112.0    1648
112.02   1646
112.04   1627
112.06   1599
112.08   1622
112.1    1617
112.12   1597
112.14   1638
112.16   1661
112.18   1643
112.2    1621
112.22   1634
112.24   1598
112.26   1596
112.28   1638
112.3    1632
112.32   1610
112.34   1587
112.36   1562
112.38   1561
112.4    1536
112.42   1546
112.44   1581
112.46   1650
112.48   1576
112.5    1589
112.52   1602
112.54   1601
112.56   1600
112.58   1584
112.6    1630
112.62   1582
112.64   1598
112.66   1531
112.68   1580
112.7    1556
112.72   1568
112.74   1541
112.76   1530
112.78   1587
112.8    1575
112.82   1586
112.84   1564
112.86   1590
112.88   1563
112.9    1588
112.92   1572
112.94   1573
112.96   1589
112.98   1573
113.0    1584
113.02   1555
113.04   1565
113.06   1567
113.08   1550
113.1    1574
113.12   1547
113.14   1549
113.16   1563
113.18   1546
113.2    1551
113.22   1573
113.24   1559
113.26   1553
113.28   1582
113.3    1562
113.32   1602
113.34   1534
113.36   1585
113.38   1562
113.4    1550
113.42   1582
113.44   1566
113.46   1563
113.48   1596
113.5    1602
113.52   1536
113.54   1565
113.56   1569
113.58   1574
113.6    1594
113.62   1607
113.64   1573
113.66   1549
113.68   1530
113.7    1557
113.72   1584
113.74   1580
113.76   1604
113.78   1612
113.8    1567
113.82   1570
113.84   1565
113.86   1598
113.88   1584
113.9    1585
113.92   1565
113.94   1567
113.96   1587
113.98   1626
114.0    1605
114.02   1590
114.04   1589
114.06   1584
114.08   1589
114.1    1590
114.12   1592
114.14   1613
114.16   1608
114.18   1569
114.2    1583
114.22   1557
114.24   1595
114.26   1625
114.28   1594
114.3    1580
114.32   1565
114.34   1603
114.36   1607
114.38   1631
114.4    1601
114.42   1615
114.44   1601
114.46   1625
114.48   1625
114.5    1631
114.52   1610
114.54   1571
114.56   1572
114.58   1624
114.6    1608
114.62   1640
114.64   1651
114.66   1620
114.68   1646
114.7    1629
114.72   1621
114.74   1646
114.76   1642
114.78   1637
114.8    1624
114.82   1661
114.84   1612
114.86   1632
114.88   1637
114.9    1591
114.92   1629
114.94   1647
114.96   1683
114.98   1665
115.0    1616
115.02   1635
115.04   1650
115.06   1644
115.08   1638
115.1    1624
115.12   1627
115.14   1634
115.16   1660
115.18   1661
115.2    1647
115.22   1659
115.24   1683
115.26   1664
115.28   1649
115.3    1663
115.32   1669
115.34   1708
115.36   1674
115.38   1686
115.4    1667
115.42   1703
115.44   1668
115.46   1687
115.48   1719
115.5    1704
115.52   1747
115.54   1645
115.56   1670
115.58   1700
115.6    1693
115.62   1724
115.64   1695
115.66   1707
115.68   1702
115.7    1692
115.72   1703
115.74   1703
115.76   1736
115.78   1736
115.8    1732
115.82   1735
115.84   1716
115.86   1725
115.88   1701
115.9    1709
115.92   1743
115.94   1771
115.96   1785
115.98   1797
116.0    1746
116.02   1735
116.04   1703
116.06   1776
116.08   1733
116.1    1759
116.12   1780
116.14   1788
116.16   1740
116.18   1805
116.2    1771
116.22   1773
116.24   1759
116.26   1749
116.28   1778
116.3    1767
116.32   1758
116.34   1797
116.36   1757
116.38   1761
116.4    1789
116.42   1796
116.44   1780
116.46   1814
116.48   1808
116.5    1842
116.52   1820
116.54   1829
116.56   1779
116.58   1772
116.6    1804
116.62   1800
116.64   1813
116.66   1769
116.68   1840
116.7    1777
116.72   1811
116.74   1796
116.76   1806
116.78   1808
116.8    1846
116.82   1837
116.84   1827
116.86   1826
116.88   1823
116.9    1866
116.92   1829
116.94   1832
116.96   1820
116.98   1839
117.0    1845
117.02   1835
117.04   1793
117.06   1844
117.08   1818
117.1    1876
117.12   1828
117.14   1819
117.16   1855
117.18   1871
117.2    1851
117.22   1841
117.24   1794
117.26   1848
117.28   1895
117.3    1879
117.32   1862
117.34   1873
117.36   1843
117.38   1864
117.4    1889
117.42   1853
117.44   1863
117.46   1877
117.48   1894
117.5    1876
117.52   1837
117.54   1900
117.56   1869
117.58   1890
117.6    1917
117.62   1906
117.64   1883
117.66   1888
117.68   1903
117.7    1909
117.72   1893
117.74   1925
117.76   1935
117.78   1915
117.8    1899
117.82   1879
117.84   1884
117.86   1910
117.88   1951
117.9    1913
117.92   1901
117.94   1878
117.96   1887
117.98   1895
118.0    1947
118.02   1982
118.04   1955
118.06   1917
118.08   1908
118.1    1940
118.12   1921
118.14   1995
118.16   1955
118.18   1909
118.2    1941
118.22   1955
118.24   1970
118.26   1971
118.28   1885
118.3    1938
118.32   1893
118.34   1933
118.36   1966
118.38   1928
118.4    1928
118.42   1933
118.44   1940
118.46   1938
118.48   1947
118.5    1936
118.52   1961
118.54   1920
118.56   1954
118.58   1971
118.6    1921
118.62   1929
118.64   1953
118.66   1968
118.68   1948
118.7    1942
118.72   1954
118.74   1962
118.76   1960
118.78   2022
118.8    1965
118.82   1943
118.84   1955
118.86   1927
118.88   1943
118.9    1927
118.92   1939
118.94   1995
118.96   1969
118.98   1937
119.0    1926
119.02   1919
119.04   1975
119.06   1941
119.08   1941
119.1    1955
119.12   1966
119.14   1967
119.16   1968
119.18   1989
119.2    1930
119.22   1983
119.24   1957
119.26   1980
119.28   1975
119.3    1989
119.32   1991
119.34   1907
119.36   1937
119.38   1927
119.4    1919
119.42   1894
119.44   1883
119.46   1878
119.48   1916
119.5    1903
119.52   1901
119.54   1923
119.56   1929
119.58   1928
119.6    1889
119.62   1875
119.64   1914
119.66   1928
119.68   1884
119.7    1895
119.72   1885
119.74   1914
119.76   1891
119.78   1901
119.8    1855
119.82   1865
119.84   1855
119.86   1862
119.88   1842
119.9    1838
119.92   1864
119.94   1847
119.96   1869
119.98   1887
120.0    1855
