#PbSOA_3nm_tol_120420 - Default scan
20.0     2280
20.02    2266
20.04    2255
20.06    2248
20.08    2257
20.1     2274
20.12    2255
20.14    2266
20.16    2264
20.18    2284
20.2     2274
20.22    2243
20.24    2268
20.26    2319
20.28    2312
20.3     2296
20.32    2255
20.34    2263
20.36    2293
20.38    2278
20.4     2289
20.42    2344
20.44    2305
20.46    2304
20.48    2293
20.5     2284
20.52    2300
20.54    2321
20.56    2257
20.58    2229
20.6     2306
20.62    2350
20.64    2316
20.66    2334
20.68    2264
20.7     2272
20.72    2260
20.74    2273
20.76    2301
20.78    2287
20.8     2266
20.82    2268
20.84    2247
20.86    2286
20.88    2237
20.9     2205
20.92    2279
20.94    2269
20.96    2249
20.98    2273
21.0     2319
21.02    2286
21.04    2311
21.06    2315
21.08    2272
21.1     2322
21.12    2343
21.14    2332
21.16    2316
21.18    2301
21.2     2344
21.22    2300
21.24    2317
21.26    2355
21.28    2343
21.3     2305
21.32    2281
21.34    2268
21.36    2262
21.38    2341
21.4     2371
21.42    2329
21.44    2396
21.46    2422
21.48    2405
21.5     2359
21.52    2323
21.54    2295
21.56    2287
21.58    2331
21.6     2359
21.62    2368
21.64    2307
21.66    2320
21.68    2370
21.7     2340
21.72    2270
21.74    2284
21.76    2320
21.78    2326
21.8     2343
21.82    2314
21.84    2338
21.86    2321
21.88    2318
21.9     2299
21.92    2321
21.94    2298
21.96    2294
21.98    2359
22.0     2396
22.02    2425
22.04    2355
22.06    2363
22.08    2367
22.1     2429
22.12    2414
22.14    2341
22.16    2346
22.18    2369
22.2     2394
22.22    2354
22.24    2318
22.26    2361
22.28    2384
22.3     2358
22.32    2381
22.34    2385
22.36    2316
22.38    2384
22.4     2385
22.42    2376
22.44    2358
22.46    2360
22.48    2334
22.5     2353
22.52    2325
22.54    2341
22.56    2391
22.58    2436
22.6     2425
22.62    2412
22.64    2420
22.66    2391
22.68    2396
22.7     2450
22.72    2406
22.74    2376
22.76    2439
22.78    2483
22.8     2450
22.82    2392
22.84    2419
22.86    2450
22.88    2472
22.9     2486
22.92    2475
22.94    2458
22.96    2437
22.98    2432
23.0     2517
23.02    2461
23.04    2446
23.06    2482
23.08    2469
23.1     2489
23.12    2449
23.14    2413
23.16    2429
23.18    2447
23.2     2444
23.22    2460
23.24    2486
23.26    2482
23.28    2550
23.3     2589
23.32    2512
23.34    2540
23.36    2585
23.38    2585
23.4     2582
23.42    2628
23.44    2645
23.46    2559
23.48    2551
23.5     2676
23.52    2660
23.54    2595
23.56    2650
23.58    2697
23.6     2732
23.62    2688
23.64    2706
23.66    2738
23.68    2741
23.7     2747
23.72    2745
23.74    2784
23.76    2773
23.78    2889
23.8     2883
23.82    2897
23.84    2877
23.86    2945
23.88    2984
23.9     2948
23.92    2954
23.94    2983
23.96    3008
23.98    3057
24.0     3057
24.02    3105
24.04    3119
24.06    3146
24.08    3131
24.1     3182
24.12    3199
24.14    3236
24.16    3267
24.18    3330
24.2     3336
24.22    3385
24.24    3450
24.26    3421
24.28    3471
24.3     3480
24.32    3455
24.34    3583
24.36    3589
24.38    3616
24.4     3698
24.42    3688
24.44    3668
24.46    3722
24.48    3805
24.5     3861
24.52    3880
24.54    3989
24.56    3995
24.58    4025
24.6     4025
24.62    4084
24.64    4220
24.66    4266
24.68    4229
24.7     4196
24.72    4255
24.74    4350
24.76    4446
24.78    4399
24.8     4436
24.82    4519
24.84    4556
24.86    4654
24.88    4728
24.9     4659
24.92    4722
24.94    4790
24.96    4777
24.98    4778
25.0     4853
25.02    4917
25.04    4954
25.06    4953
25.08    5003
25.1     5160
25.12    5193
25.14    5113
25.16    5233
25.18    5238
25.2     5322
25.22    5397
25.24    5365
25.26    5423
25.28    5400
25.3     5496
25.32    5566
25.34    5645
25.36    5643
25.38    5676
25.4     5658
25.42    5700
25.44    5703
25.46    5736
25.48    5848
25.5     5831
25.52    5847
25.54    5880
25.56    5957
25.58    5922
25.6     5895
25.62    5936
25.64    6039
25.66    6122
25.68    6109
25.7     6108
25.72    6152
25.74    6074
25.76    6061
25.78    6107
25.8     6044
25.82    6194
25.84    6234
25.86    6182
25.88    6088
25.9     6251
25.92    6292
25.94    6323
25.96    6327
25.98    6277
26.0     6276
26.02    6311
26.04    6299
26.06    6265
26.08    6332
26.1     6221
26.12    6190
26.14    6220
26.16    6221
26.18    6229
26.2     6250
26.22    6199
26.24    6256
26.26    6133
26.28    6184
26.3     6155
26.32    6161
26.34    6102
26.36    6151
26.38    6166
26.4     6088
26.42    6061
26.44    6085
26.46    6011
26.48    6026
26.5     6029
26.52    5973
26.54    5865
26.56    5851
26.58    5840
26.6     5855
26.62    5746
26.64    5796
26.66    5763
26.68    5772
26.7     5690
26.72    5650
26.74    5602
26.76    5521
26.78    5623
26.8     5521
26.82    5390
26.84    5401
26.86    5315
26.88    5334
26.9     5275
26.92    5295
26.94    5396
26.96    5259
26.98    5184
27.0     5189
27.02    5031
27.04    5075
27.06    4982
27.08    4898
27.1     4943
27.12    4933
27.14    4946
27.16    4824
27.18    4871
27.2     4808
27.22    4687
27.24    4576
27.26    4623
27.28    4593
27.3     4549
27.32    4551
27.34    4601
27.36    4461
27.38    4399
27.4     4389
27.42    4341
27.44    4266
27.46    4333
27.48    4312
27.5     4263
27.52    4199
27.54    4149
27.56    4175
27.58    4113
27.6     4070
27.62    4023
27.64    4034
27.66    3982
27.68    3965
27.7     3995
27.72    4013
27.74    3951
27.76    3974
27.78    3989
27.8     3996
27.82    3945
27.84    3890
27.86    3855
27.88    3896
27.9     3895
27.92    3900
27.94    3851
27.96    3800
27.98    3864
28.0     3918
28.02    3899
28.04    3889
28.06    3946
28.08    3905
28.1     3830
28.12    3908
28.14    4032
28.16    4107
28.18    4050
28.2     4036
28.22    4040
28.24    4004
28.26    4084
28.28    4051
28.3     4143
28.32    4114
28.34    4199
28.36    4107
28.38    4132
28.4     4206
28.42    4159
28.44    4230
28.46    4359
28.48    4322
28.5     4289
28.52    4393
28.54    4419
28.56    4481
28.58    4517
28.6     4571
28.62    4561
28.64    4568
28.66    4602
28.68    4715
28.7     4736
28.72    4710
28.74    4748
28.76    4790
28.78    4774
28.8     4863
28.82    4959
28.84    5011
28.86    5038
28.88    5136
28.9     5211
28.92    5143
28.94    5096
28.96    5196
28.98    5267
29.0     5377
29.02    5374
29.04    5420
29.06    5501
29.08    5623
29.1     5603
29.12    5658
29.14    5723
29.16    5678
29.18    5772
29.2     5824
29.22    5850
29.24    5913
29.26    5897
29.28    5874
29.3     5963
29.32    6026
29.34    6086
29.36    6303
29.38    6422
29.4     6373
29.42    6271
29.44    6374
29.46    6398
29.48    6375
29.5     6443
29.52    6469
29.54    6408
29.56    6479
29.58    6475
29.6     6454
29.62    6596
29.64    6514
29.66    6522
29.68    6587
29.7     6725
29.72    6770
29.74    6715
29.76    6660
29.78    6635
29.8     6689
29.82    6773
29.84    6735
29.86    6637
29.88    6684
29.9     6752
29.92    6829
29.94    6912
29.96    6749
29.98    6742
30.0     6733
30.02    6755
30.04    6666
30.06    6684
30.08    6777
30.1     6943
30.12    6754
30.14    6757
30.16    6617
30.18    6661
30.2     6608
30.22    6648
30.24    6621
30.26    6566
30.28    6489
30.3     6506
30.32    6523
30.34    6544
30.36    6420
30.38    6458
30.4     6294
30.42    6290
30.44    6255
30.46    6283
30.48    6222
30.5     6213
30.52    6171
30.54    6188
30.56    6032
30.58    6039
30.6     5986
30.62    5932
30.64    5967
30.66    5960
30.68    5931
30.7     5776
30.72    5787
30.74    5720
30.76    5712
30.78    5625
30.8     5619
30.82    5582
30.84    5426
30.86    5398
30.88    5268
30.9     5271
30.92    5241
30.94    5320
30.96    5221
30.98    5098
31.0     5141
31.02    5053
31.04    4969
31.06    4989
31.08    5112
31.1     4892
31.12    4755
31.14    4654
31.16    4673
31.18    4642
31.2     4615
31.22    4442
31.24    4465
31.26    4504
31.28    4446
31.3     4351
31.32    4265
31.34    4221
31.36    4151
31.38    4144
31.4     4099
31.42    3967
31.44    3940
31.46    4045
31.48    3969
31.5     3883
31.52    3770
31.54    3774
31.56    3785
31.58    3686
31.6     3673
31.62    3540
31.64    3470
31.66    3546
31.68    3495
31.7     3484
31.72    3365
31.74    3340
31.76    3272
31.78    3233
31.8     3214
31.82    3193
31.84    3228
31.86    3171
31.88    3142
31.9     3106
31.92    3022
31.94    3024
31.96    3038
31.98    2932
32.0     2904
32.02    2873
32.04    2866
32.06    2883
32.08    2929
32.1     2861
32.12    2735
32.14    2782
32.16    2744
32.18    2683
32.2     2705
32.22    2713
32.24    2687
32.26    2664
32.28    2637
32.3     2582
32.32    2584
32.34    2553
32.36    2666
32.38    2614
32.4     2593
32.42    2569
32.44    2528
32.46    2461
32.48    2519
32.5     2488
32.52    2455
32.54    2440
32.56    2401
32.58    2417
32.6     2396
32.62    2341
32.64    2332
32.66    2351
32.68    2282
32.7     2279
32.72    2276
32.74    2290
32.76    2334
32.78    2314
32.8     2314
32.82    2355
32.84    2351
32.86    2280
32.88    2280
32.9     2259
32.92    2286
32.94    2224
32.96    2326
32.98    2288
33.0     2254
33.02    2209
33.04    2221
33.06    2237
33.08    2153
33.1     2198
33.12    2243
33.14    2200
33.16    2169
33.18    2161
33.2     2220
33.22    2227
33.24    2247
33.26    2189
33.28    2212
33.3     2169
33.32    2145
33.34    2174
33.36    2115
33.38    2084
33.4     2156
33.42    2174
33.44    2158
33.46    2158
33.48    2171
33.5     2184
33.52    2187
33.54    2145
33.56    2178
33.58    2213
33.6     2176
33.62    2187
33.64    2148
33.66    2225
33.68    2159
33.7     2125
33.72    2122
33.74    2128
33.76    2070
33.78    2101
33.8     2145
33.82    2104
33.84    2100
33.86    2132
33.88    2115
33.9     2102
33.92    2103
33.94    2089
33.96    2095
33.98    2116
34.0     2056
34.02    2049
34.04    2112
34.06    2058
34.08    2067
34.1     2024
34.12    1956
34.14    1980
34.16    2001
34.18    2098
34.2     2032
34.22    2008
34.24    2038
34.26    2047
34.28    2043
34.3     1970
34.32    2013
34.34    1966
34.36    2016
34.38    1964
34.4     2065
34.42    1998
34.44    2009
34.46    1971
34.48    1964
34.5     2016
34.52    1993
34.54    1965
34.56    2010
34.58    2044
34.6     2047
34.62    1918
34.64    1944
34.66    1983
34.68    1993
34.7     1959
34.72    1974
34.74    2009
34.76    1939
34.78    1955
34.8     2030
34.82    2024
34.84    1925
34.86    1991
34.88    2028
34.9     1954
34.92    1895
34.94    1909
34.96    1960
34.98    1870
35.0     1889
35.02    1900
35.04    1893
35.06    2005
35.08    1930
35.1     1890
35.12    1882
35.14    1892
35.16    1945
35.18    1964
35.2     1931
35.22    1946
35.24    1993
35.26    2010
35.28    1928
35.3     1918
35.32    1887
35.34    1923
35.36    1885
35.38    1899
35.4     1931
35.42    1964
35.44    1880
35.46    1923
35.48    1961
35.5     1890
35.52    1883
35.54    1958
35.56    1996
35.58    1850
35.6     1918
35.62    1915
35.64    1916
35.66    1962
35.68    1887
35.7     1917
35.72    1875
35.74    1886
35.76    1897
35.78    1882
35.8     1926
35.82    1960
35.84    1952
35.86    1938
35.88    1896
35.9     1912
35.92    1866
35.94    1895
35.96    1929
35.98    1883
36.0     1905
36.02    1918
36.04    1904
36.06    1906
36.08    1906
36.1     1908
36.12    1899
36.14    1900
36.16    1894
36.18    1917
36.2     1876
36.22    1902
36.24    1942
36.26    1958
36.28    1855
36.3     1940
36.32    1898
36.34    1943
36.36    1943
36.38    1933
36.4     1898
36.42    1898
36.44    1890
36.46    1888
36.48    1948
36.5     1894
36.52    1853
36.54    1884
36.56    1866
36.58    1941
36.6     1859
36.62    1905
36.64    1846
36.66    1841
36.68    1795
36.7     1945
36.72    1954
36.74    1927
36.76    1859
36.78    1917
36.8     1905
36.82    1959
36.84    1937
36.86    1898
36.88    1941
36.9     1930
36.92    1841
36.94    1942
36.96    1957
36.98    1913
37.0     1905
37.02    1902
37.04    1911
37.06    1900
37.08    1970
37.1     1844
37.12    1822
37.14    1887
37.16    1890
37.18    1944
37.2     1874
37.22    1904
37.24    1957
37.26    1941
37.28    1893
37.3     1897
37.32    1865
37.34    1906
37.36    1877
37.38    1906
37.4     1943
37.42    1954
37.44    1951
37.46    1884
37.48    1982
37.5     1931
37.52    1857
37.54    1889
37.56    1928
37.58    1958
37.6     1974
37.62    1945
37.64    1930
37.66    1923
37.68    1993
37.7     1965
37.72    1954
37.74    1981
37.76    1949
37.78    1924
37.8     1857
37.82    1910
37.84    1920
37.86    1935
37.88    1942
37.9     1890
37.92    1951
37.94    1989
37.96    1943
37.98    2010
38.0     1991
38.02    1959
38.04    1959
38.06    1944
38.08    1976
38.1     1934
38.12    2029
38.14    1984
38.16    2027
38.18    1979
38.2     1983
38.22    1907
38.24    2027
38.26    1950
38.28    2037
38.3     1970
38.32    1972
38.34    1963
38.36    2031
38.38    1985
38.4     1965
38.42    2011
38.44    1965
38.46    2000
38.48    2071
38.5     2079
38.52    2026
38.54    2061
38.56    2078
38.58    2060
38.6     1990
38.62    2079
38.64    2103
38.66    2036
38.68    2063
38.7     2118
38.72    1977
38.74    2039
38.76    2061
38.78    2055
38.8     2105
38.82    2088
38.84    2006
38.86    2098
38.88    2035
38.9     2023
38.92    2037
38.94    2118
38.96    2120
38.98    2077
39.0     2053
39.02    2071
39.04    2055
39.06    2108
39.08    2088
39.1     2032
39.12    2067
39.14    2074
39.16    2070
39.18    2080
39.2     2135
39.22    2059
39.24    2092
39.26    2067
39.28    2136
39.3     2116
39.32    2150
39.34    2118
39.36    2138
39.38    2109
39.4     2118
39.42    2069
39.44    2109
39.46    2141
39.48    2103
39.5     2082
39.52    2085
39.54    2117
39.56    2112
39.58    2201
39.6     2224
39.62    2212
39.64    2162
39.66    2134
39.68    2163
39.7     2187
39.72    2148
39.74    2119
39.76    2196
39.78    2164
39.8     2250
39.82    2287
39.84    2271
39.86    2258
39.88    2229
39.9     2289
39.92    2287
39.94    2283
39.96    2286
39.98    2314
40.0     2314
40.02    2299
40.04    2245
40.06    2266
40.08    2355
40.1     2381
40.12    2471
40.14    2320
40.16    2427
40.18    2445
40.2     2530
40.22    2496
40.24    2543
40.26    2474
40.28    2611
40.3     2631
40.32    2613
40.34    2639
40.36    2688
40.38    2670
40.4     2750
40.42    2723
40.44    2686
40.46    2748
40.48    2722
40.5     2856
40.52    2868
40.54    2855
40.56    2810
40.58    2986
40.6     2959
40.62    3039
40.64    3030
40.66    3040
40.68    3089
40.7     3181
40.72    3234
40.74    3295
40.76    3329
40.78    3279
40.8     3421
40.82    3362
40.84    3400
40.86    3512
40.88    3521
40.9     3571
40.92    3777
40.94    3745
40.96    3823
40.98    3833
41.0     3855
41.02    3873
41.04    4049
41.06    4060
41.08    4136
41.1     4200
41.12    4248
41.14    4349
41.16    4328
41.18    4285
41.2     4369
41.22    4388
41.24    4612
41.26    4666
41.28    4723
41.3     4738
41.32    4766
41.34    4867
41.36    5018
41.38    5035
41.4     5063
41.42    5177
41.44    5274
41.46    5298
41.48    5433
41.5     5477
41.52    5558
41.54    5601
41.56    5693
41.58    5678
41.6     5834
41.62    5797
41.64    5914
41.66    5918
41.68    6124
41.7     6071
41.72    6285
41.74    6237
41.76    6420
41.78    6458
41.8     6489
41.82    6488
41.84    6694
41.86    6828
41.88    6870
41.9     6972
41.92    6978
41.94    6967
41.96    7180
41.98    7255
42.0     7190
42.02    7344
42.04    7299
42.06    7428
42.08    7533
42.1     7490
42.12    7649
42.14    7704
42.16    7788
42.18    7769
42.2     7824
42.22    7906
42.24    7905
42.26    7987
42.28    8118
42.3     8295
42.32    8270
42.34    8231
42.36    8446
42.38    8517
42.4     8487
42.42    8441
42.44    8647
42.46    8800
42.48    8710
42.5     8738
42.52    8591
42.54    8857
42.56    8908
42.58    8898
42.6     8882
42.62    8843
42.64    9017
42.66    8880
42.68    9000
42.7     9042
42.72    8980
42.74    9192
42.76    9124
42.78    9067
42.8     9250
42.82    9112
42.84    9162
42.86    9142
42.88    9227
42.9     9418
42.92    9146
42.94    9267
42.96    9373
42.98    9279
43.0     9339
43.02    9289
43.04    9171
43.06    9182
43.08    9273
43.1     9104
43.12    9228
43.14    9287
43.16    9244
43.18    9140
43.2     9105
43.22    9087
43.24    9201
43.26    9052
43.28    9058
43.3     9037
43.32    9094
43.34    8962
43.36    8997
43.38    8923
43.4     8891
43.42    8922
43.44    8763
43.46    8719
43.48    8632
43.5     8692
43.52    8727
43.54    8623
43.56    8480
43.58    8583
43.6     8404
43.62    8259
43.64    8339
43.66    8325
43.68    8277
43.7     8265
43.72    8114
43.74    7923
43.76    7860
43.78    7722
43.8     7814
43.82    7816
43.84    7746
43.86    7857
43.88    7777
43.9     7520
43.92    7478
43.94    7447
43.96    7343
43.98    7280
44.0     7248
44.02    7023
44.04    7108
44.06    7049
44.08    6896
44.1     6852
44.12    6817
44.14    6784
44.16    6737
44.18    6635
44.2     6543
44.22    6374
44.24    6377
44.26    6231
44.28    6243
44.3     6108
44.32    6137
44.34    6051
44.36    6025
44.38    5932
44.4     5754
44.42    5706
44.44    5635
44.46    5765
44.48    5606
44.5     5486
44.52    5436
44.54    5432
44.56    5394
44.58    5228
44.6     5121
44.62    5156
44.64    5049
44.66    4889
44.68    4865
44.7     4789
44.72    4631
44.74    4638
44.76    4677
44.78    4627
44.8     4457
44.82    4434
44.84    4359
44.86    4260
44.88    4286
44.9     4192
44.92    4066
44.94    4147
44.96    4036
44.98    4063
45.0     3959
45.02    3819
45.04    3867
45.06    3847
45.08    3750
45.1     3687
45.12    3616
45.14    3708
45.16    3589
45.18    3492
45.2     3472
45.22    3484
45.24    3477
45.26    3423
45.28    3395
45.3     3268
45.32    3287
45.34    3186
45.36    3220
45.38    3142
45.4     3137
45.42    3135
45.44    3084
45.46    3101
45.48    3036
45.5     2986
45.52    2989
45.54    2886
45.56    2794
45.58    2839
45.6     2849
45.62    2759
45.64    2846
45.66    2766
45.68    2727
45.7     2718
45.72    2729
45.74    2628
45.76    2610
45.78    2738
45.8     2580
45.82    2601
45.84    2693
45.86    2617
45.88    2622
45.9     2539
45.92    2501
45.94    2579
45.96    2489
45.98    2502
46.0     2487
46.02    2468
46.04    2419
46.06    2417
46.08    2410
46.1     2553
46.12    2493
46.14    2428
46.16    2391
46.18    2387
46.2     2416
46.22    2418
46.24    2371
46.26    2377
46.28    2402
46.3     2420
46.32    2446
46.34    2419
46.36    2317
46.38    2352
46.4     2397
46.42    2345
46.44    2345
46.46    2355
46.48    2389
46.5     2388
46.52    2332
46.54    2328
46.56    2366
46.58    2442
46.6     2409
46.62    2386
46.64    2394
46.66    2303
46.68    2272
46.7     2388
46.72    2376
46.74    2439
46.76    2361
46.78    2318
46.8     2234
46.82    2257
46.84    2479
46.86    2405
46.88    2348
46.9     2258
46.92    2301
46.94    2276
46.96    2275
46.98    2296
47.0     2255
47.02    2322
47.04    2279
47.06    2356
47.08    2275
47.1     2298
47.12    2346
47.14    2263
47.16    2336
47.18    2275
47.2     2330
47.22    2298
47.24    2224
47.26    2269
47.28    2204
47.3     2254
47.32    2305
47.34    2232
47.36    2290
47.38    2318
47.4     2310
47.42    2217
47.44    2221
47.46    2199
47.48    2271
47.5     2242
47.52    2281
47.54    2228
47.56    2228
47.58    2331
47.6     2244
47.62    2195
47.64    2297
47.66    2246
47.68    2189
47.7     2230
47.72    2264
47.74    2235
47.76    2231
47.78    2287
47.8     2245
47.82    2200
47.84    2197
47.86    2302
47.88    2261
47.9     2323
47.92    2310
47.94    2267
47.96    2256
47.98    2257
48.0     2259
48.02    2289
48.04    2249
48.06    2293
48.08    2272
48.1     2343
48.12    2265
48.14    2277
48.16    2302
48.18    2279
48.2     2348
48.22    2331
48.24    2337
48.26    2332
48.28    2328
48.3     2331
48.32    2373
48.34    2366
48.36    2398
48.38    2475
48.4     2314
48.42    2382
48.44    2506
48.46    2441
48.48    2400
48.5     2421
48.52    2448
48.54    2471
48.56    2527
48.58    2553
48.6     2553
48.62    2614
48.64    2602
48.66    2578
48.68    2576
48.7     2696
48.72    2631
48.74    2705
48.76    2732
48.78    2732
48.8     2702
48.82    2811
48.84    2759
48.86    2759
48.88    2776
48.9     2875
48.92    2873
48.94    2882
48.96    2916
48.98    2956
49.0     2920
49.02    2924
49.04    3037
49.06    3059
49.08    3048
49.1     3060
49.12    3155
49.14    3124
49.16    3191
49.18    3219
49.2     3241
49.22    3266
49.24    3356
49.26    3263
49.28    3441
49.3     3301
49.32    3423
49.34    3358
49.36    3557
49.38    3541
49.4     3561
49.42    3556
49.44    3624
49.46    3573
49.48    3703
49.5     3723
49.52    3752
49.54    3769
49.56    3764
49.58    3806
49.6     3776
49.62    3792
49.64    3812
49.66    3852
49.68    4161
49.7     4001
49.72    4040
49.74    4040
49.76    4012
49.78    4093
49.8     4154
49.82    4117
49.84    4167
49.86    4175
49.88    4288
49.9     4346
49.92    4395
49.94    4365
49.96    4362
49.98    4334
50.0     4394
50.02    4454
50.04    4434
50.06    4571
50.08    4540
50.1     4643
50.12    4580
50.14    4539
50.16    4647
50.18    4669
50.2     4679
50.22    4713
50.24    4620
50.26    4771
50.28    4781
50.3     4830
50.32    4910
50.34    4851
50.36    4754
50.38    4869
50.4     4897
50.42    5107
50.44    5001
50.46    4881
50.48    4965
50.5     4907
50.52    4966
50.54    5058
50.56    4987
50.58    5014
50.6     5083
50.62    5198
50.64    5095
50.66    5104
50.68    5086
50.7     5074
50.72    5151
50.74    4982
50.76    5180
50.78    5254
50.8     5209
50.82    5083
50.84    5112
50.86    5192
50.88    5179
50.9     5222
50.92    5042
50.94    5156
50.96    5160
50.98    5148
51.0     5176
51.02    5190
51.04    5148
51.06    5182
51.08    5118
51.1     5179
51.12    5180
51.14    5053
51.16    5120
51.18    5159
51.2     5174
51.22    5111
51.24    5135
51.26    5022
51.28    5019
51.3     4940
51.32    5180
51.34    4963
51.36    4970
51.38    5019
51.4     4986
51.42    5026
51.44    4957
51.46    4887
51.48    4861
51.5     4809
51.52    4946
51.54    4837
51.56    4838
51.58    4833
51.6     4848
51.62    4791
51.64    4736
51.66    4750
51.68    4717
51.7     4535
51.72    4704
51.74    4667
51.76    4625
51.78    4551
51.8     4582
51.82    4610
51.84    4638
51.86    4466
51.88    4548
51.9     4573
51.92    4621
51.94    4603
51.96    4509
51.98    4461
52.0     4499
52.02    4417
52.04    4319
52.06    4345
52.08    4286
52.1     4344
52.12    4388
52.14    4234
52.16    4245
52.18    4249
52.2     4232
52.22    4300
52.24    4183
52.26    4248
52.28    4220
52.3     4269
52.32    4126
52.34    4105
52.36    3942
52.38    4004
52.4     4101
52.42    4016
52.44    3960
52.46    4013
52.48    4098
52.5     4048
52.52    4035
52.54    4021
52.56    3940
52.58    4033
52.6     3873
52.62    3906
52.64    3811
52.66    3943
52.68    3874
52.7     3754
52.72    3808
52.74    3824
52.76    3809
52.78    3688
52.8     3654
52.82    3703
52.84    3619
52.86    3658
52.88    3705
52.9     3643
52.92    3758
52.94    3627
52.96    3674
52.98    3570
53.0     3551
53.02    3488
53.04    3556
53.06    3528
53.08    3537
53.1     3516
53.12    3454
53.14    3466
53.16    3448
53.18    3508
53.2     3397
53.22    3430
53.24    3420
53.26    3386
53.28    3367
53.3     3436
53.32    3424
53.34    3434
53.36    3400
53.38    3399
53.4     3357
53.42    3304
53.44    3400
53.46    3291
53.48    3363
53.5     3324
53.52    3239
53.54    3320
53.56    3299
53.58    3244
53.6     3241
53.62    3228
53.64    3218
53.66    3225
53.68    3178
53.7     3168
53.72    3214
53.74    3199
53.76    3208
53.78    3170
53.8     3171
53.82    3179
53.84    3026
53.86    3160
53.88    3145
53.9     3099
53.92    3123
53.94    3041
53.96    3150
53.98    3041
54.0     3085
54.02    3075
54.04    3074
54.06    3082
54.08    2992
54.1     2991
54.12    2988
54.14    2958
54.16    2951
54.18    2936
54.2     2870
54.22    2939
54.24    2954
54.26    2898
54.28    2902
54.3     2862
54.32    2884
54.34    2855
54.36    2799
54.38    2778
54.4     2773
54.42    2789
54.44    2802
54.46    2717
54.48    2773
54.5     2800
54.52    2685
54.54    2707
54.56    2701
54.58    2663
54.6     2673
54.62    2606
54.64    2633
54.66    2651
54.68    2574
54.7     2585
54.72    2563
54.74    2537
54.76    2629
54.78    2621
54.8     2564
54.82    2585
54.84    2484
54.86    2495
54.88    2588
54.9     2518
54.92    2570
54.94    2514
54.96    2473
54.98    2455
55.0     2389
55.02    2415
55.04    2426
55.06    2367
55.08    2416
55.1     2413
55.12    2390
55.14    2339
55.16    2338
55.18    2281
55.2     2315
55.22    2249
55.24    2345
55.26    2284
55.28    2271
55.3     2336
55.32    2267
55.34    2204
55.36    2310
55.38    2240
55.4     2229
55.42    2197
55.44    2157
55.46    2196
55.48    2171
55.5     2204
55.52    2127
55.54    2138
55.56    2135
55.58    2208
55.6     2138
55.62    2104
55.64    2171
55.66    2170
55.68    2116
55.7     2105
55.72    2087
55.74    2051
55.76    2090
55.78    2046
55.8     2107
55.82    2034
55.84    2025
55.86    2043
55.88    2067
55.9     2110
55.92    2065
55.94    1993
55.96    2014
55.98    2023
56.0     2000
56.02    2012
56.04    1988
56.06    1958
56.08    1994
56.1     2010
56.12    1898
56.14    1981
56.16    1977
56.18    1959
56.2     1923
56.22    1935
56.24    1982
56.26    1968
56.28    1954
56.3     1897
56.32    1902
56.34    1946
56.36    1887
56.38    1915
56.4     1902
56.42    1962
56.44    1897
56.46    1864
56.48    1864
56.5     1839
56.52    1878
56.54    1930
56.56    2016
56.58    1973
56.6     1946
56.62    1920
56.64    1899
56.66    1897
56.68    1861
56.7     1869
56.72    1821
56.74    1864
56.76    1896
56.78    1887
56.8     1911
56.82    1870
56.84    1907
56.86    1969
56.88    1965
56.9     1900
56.92    1861
56.94    1888
56.96    1958
56.98    1909
57.0     1876
57.02    1826
57.04    1867
57.06    1900
57.08    1900
57.1     1862
57.12    1855
57.14    1925
57.16    1875
57.18    1816
57.2     1853
57.22    1850
57.24    1909
57.26    1850
57.28    1861
57.3     1911
57.32    1923
57.34    1912
57.36    1899
57.38    1916
57.4     1881
57.42    1862
57.44    1834
57.46    1858
57.48    1863
57.5     1950
57.52    1868
57.54    1858
57.56    1805
57.58    1847
57.6     1879
57.62    1939
57.64    1956
57.66    1829
57.68    1870
57.7     1891
57.72    1850
57.74    1881
57.76    1858
57.78    1847
57.8     1912
57.82    1892
57.84    1899
57.86    1872
57.88    1869
57.9     1841
57.92    1877
57.94    1896
57.96    1877
57.98    1876
58.0     1870
58.02    1857
58.04    1858
58.06    1915
58.08    1893
58.1     1878
58.12    1838
58.14    1877
58.16    1872
58.18    1819
58.2     1838
58.22    1879
58.24    1842
58.26    1847
58.28    1879
58.3     1834
58.32    1843
58.34    1912
58.36    1890
58.38    1825
58.4     1790
58.42    1817
58.44    1822
58.46    1872
58.48    1771
58.5     1807
58.52    1895
58.54    1880
58.56    1778
58.58    1832
58.6     1886
58.62    1900
58.64    1866
58.66    1926
58.68    1901
58.7     1842
58.72    1894
58.74    1802
58.76    1821
58.78    1842
58.8     1900
58.82    1821
58.84    1821
58.86    1799
58.88    1802
58.9     1775
58.92    1861
58.94    1902
58.96    1882
58.98    1774
59.0     1799
59.02    1853
59.04    1857
59.06    1843
59.08    1869
59.1     1879
59.12    1859
59.14    1821
59.16    1789
59.18    1810
59.2     1872
59.22    1827
59.24    1827
59.26    1864
59.28    1852
59.3     1884
59.32    1800
59.34    1796
59.36    1822
59.38    1824
59.4     1825
59.42    1799
59.44    1875
59.46    1866
59.48    1804
59.5     1812
59.52    1914
59.54    1893
59.56    1841
59.58    1867
59.6     1822
59.62    1874
59.64    1847
59.66    1818
59.68    1794
59.7     1822
59.72    1809
59.74    1826
59.76    1821
59.78    1808
59.8     1852
59.82    1883
59.84    1839
59.86    1829
59.88    1888
59.9     1851
59.92    1859
59.94    1871
59.96    1913
59.98    1845
60.0     1829
60.02    1862
60.04    1860
60.06    1906
60.08    1940
60.1     1867
60.12    1859
60.14    1905
60.16    1948
60.18    1907
60.2     1889
60.22    1828
60.24    1869
60.26    1948
60.28    1925
60.3     1962
60.32    1895
60.34    1933
60.36    1912
60.38    1903
60.4     1851
60.42    1971
60.44    1939
60.46    1938
60.48    1940
60.5     1887
60.52    1924
60.54    1937
60.56    1926
60.58    1940
60.6     1989
60.62    1863
60.64    1996
60.66    2028
60.68    1996
60.7     2015
60.72    1993
60.74    1954
60.76    1948
60.78    1939
60.8     1901
60.82    2013
60.84    2018
60.86    1984
60.88    2083
60.9     2009
60.92    2070
60.94    2021
60.96    2035
60.98    2075
61.0     2048
61.02    2015
61.04    2044
61.06    2017
61.08    2053
61.1     2092
61.12    1999
61.14    2093
61.16    2068
61.18    2070
61.2     2061
61.22    2080
61.24    2036
61.26    2067
61.28    2113
61.3     2053
61.32    2091
61.34    2127
61.36    2101
61.38    2012
61.4     2110
61.42    2109
61.44    2075
61.46    2106
61.48    2160
61.5     2091
61.52    2114
61.54    2090
61.56    2136
61.58    2160
61.6     2174
61.62    2174
61.64    2187
61.66    2118
61.68    2163
61.7     2150
61.72    2199
61.74    2154
61.76    2194
61.78    2146
61.8     2264
61.82    2243
61.84    2199
61.86    2200
61.88    2231
61.9     2152
61.92    2202
61.94    2233
61.96    2265
61.98    2290
62.0     2273
62.02    2286
62.04    2244
62.06    2229
62.08    2219
62.1     2228
62.12    2275
62.14    2317
62.16    2234
62.18    2255
62.2     2242
62.22    2251
62.24    2262
62.26    2253
62.28    2205
62.3     2257
62.32    2268
62.34    2164
62.36    2200
62.38    2218
62.4     2216
62.42    2225
62.44    2301
62.46    2246
62.48    2223
62.5     2277
62.52    2324
62.54    2243
62.56    2294
62.58    2253
62.6     2245
62.62    2249
62.64    2277
62.66    2213
62.68    2272
62.7     2217
62.72    2195
62.74    2243
62.76    2192
62.78    2169
62.8     2209
62.82    2162
62.84    2235
62.86    2291
62.88    2272
62.9     2189
62.92    2227
62.94    2160
62.96    2150
62.98    2120
63.0     2206
63.02    2189
63.04    2228
63.06    2301
63.08    2277
63.1     2195
63.12    2113
63.14    2191
63.16    2196
63.18    2164
63.2     2205
63.22    2153
63.24    2119
63.26    2130
63.28    2147
63.3     2163
63.32    2143
63.34    2191
63.36    2166
63.38    2174
63.4     2171
63.42    2128
63.44    2133
63.46    2150
63.48    2179
63.5     2167
63.52    2122
63.54    2106
63.56    2064
63.58    2077
63.6     2072
63.62    2080
63.64    2122
63.66    2079
63.68    2086
63.7     2156
63.72    2118
63.74    2053
63.76    2091
63.78    2091
63.8     2038
63.82    2036
63.84    2044
63.86    2058
63.88    2075
63.9     2102
63.92    1976
63.94    1985
63.96    2012
63.98    2044
64.0     2014
64.02    2011
64.04    1998
64.06    2016
64.08    1979
64.1     1992
64.12    2001
64.14    2012
64.16    1944
64.18    1968
64.2     1953
64.22    1972
64.24    2038
64.26    1988
64.28    1954
64.3     1977
64.32    1961
64.34    1946
64.36    1910
64.38    1913
64.4     1971
64.42    1925
64.44    1947
64.46    2000
64.48    1959
64.5     1945
64.52    1912
64.54    1949
64.56    1897
64.58    1967
64.6     1959
64.62    1934
64.64    1920
64.66    1926
64.68    1968
64.7     1913
64.72    1872
64.74    1892
64.76    1939
64.78    1936
64.8     1937
64.82    1936
64.84    1977
64.86    1966
64.88    1916
64.9     1871
64.92    1915
64.94    1934
64.96    1854
64.98    1905
65.0     1881
65.02    1929
65.04    1885
65.06    1876
65.08    1894
65.1     1840
65.12    1855
65.14    1862
65.16    1929
65.18    1926
65.2     1896
65.22    1859
65.24    1956
65.26    1972
65.28    1935
65.3     1897
65.32    1884
65.34    1902
65.36    1975
65.38    1943
65.4     1928
65.42    1893
65.44    1920
65.46    1957
65.48    1890
65.5     1894
65.52    1927
65.54    1921
65.56    1916
65.58    1914
65.6     1928
65.62    1943
65.64    1873
65.66    1920
65.68    1938
65.7     1993
65.72    2000
65.74    1946
65.76    1966
65.78    1945
65.8     1949
65.82    1938
65.84    1967
65.86    1954
65.88    2026
65.9     1985
65.92    1956
65.94    1976
65.96    1994
65.98    1947
66.0     2024
66.02    2051
66.04    2003
66.06    2024
66.08    1992
66.1     1965
66.12    2017
66.14    2050
66.16    2084
66.18    2079
66.2     2076
66.22    2021
66.24    2018
66.26    2100
66.28    2137
66.3     2111
66.32    2128
66.34    2076
66.36    2076
66.38    2111
66.4     2102
66.42    2143
66.44    2114
66.46    2105
66.48    2175
66.5     2192
66.52    2173
66.54    2203
66.56    2191
66.58    2186
66.6     2233
66.62    2219
66.64    2186
66.66    2262
66.68    2246
66.7     2296
66.72    2285
66.74    2241
66.76    2341
66.78    2319
66.8     2268
66.82    2311
66.84    2377
66.86    2409
66.88    2396
66.9     2372
66.92    2397
66.94    2382
66.96    2363
66.98    2420
67.0     2477
67.02    2419
67.04    2510
67.06    2520
67.08    2490
67.1     2513
67.12    2514
67.14    2525
67.16    2538
67.18    2533
67.2     2635
67.22    2572
67.24    2589
67.26    2659
67.28    2625
67.3     2630
67.32    2630
67.34    2605
67.36    2642
67.38    2675
67.4     2762
67.42    2727
67.44    2735
67.46    2683
67.48    2760
67.5     2801
67.52    2773
67.54    2818
67.56    2832
67.58    2724
67.6     2793
67.62    2818
67.64    2875
67.66    2856
67.68    2851
67.7     2882
67.72    2962
67.74    2926
67.76    2945
67.78    2883
67.8     2885
67.82    2852
67.84    2929
67.86    3017
67.88    3067
67.9     3061
67.92    3079
67.94    3087
67.96    3071
67.98    3057
68.0     3087
68.02    3093
68.04    3098
68.06    3074
68.08    3072
68.1     3118
68.12    3138
68.14    3128
68.16    3210
68.18    3146
68.2     3184
68.22    3149
68.24    3169
68.26    3298
68.28    3281
68.3     3314
68.32    3255
68.34    3314
68.36    3380
68.38    3385
68.4     3398
68.42    3347
68.44    3348
68.46    3376
68.48    3345
68.5     3348
68.52    3374
68.54    3481
68.56    3415
68.58    3397
68.6     3421
68.62    3355
68.64    3405
68.66    3416
68.68    3456
68.7     3526
68.72    3541
68.74    3599
68.76    3608
68.78    3468
68.8     3480
68.82    3523
68.84    3589
68.86    3605
68.88    3513
68.9     3604
68.92    3603
68.94    3639
68.96    3607
68.98    3613
69.0     3721
69.02    3683
69.04    3641
69.06    3649
69.08    3704
69.1     3657
69.12    3635
69.14    3692
69.16    3759
69.18    3738
69.2     3744
69.22    3714
69.24    3682
69.26    3789
69.28    3691
69.3     3784
69.32    3795
69.34    3836
69.36    3848
69.38    3799
69.4     3731
69.42    3834
69.44    3791
69.46    3881
69.48    3871
69.5     3907
69.52    3872
69.54    3915
69.56    3842
69.58    3875
69.6     3862
69.62    3872
69.64    3907
69.66    3901
69.68    3877
69.7     3986
69.72    3924
69.74    3917
69.76    3924
69.78    3866
69.8     3947
69.82    3915
69.84    3972
69.86    3958
69.88    3922
69.9     3948
69.92    4016
69.94    3909
69.96    3920
69.98    3921
70.0     3992
70.02    3985
70.04    3978
70.06    3991
70.08    3968
70.1     3895
70.12    3915
70.14    3989
70.16    3993
70.18    3974
70.2     3944
70.22    4003
70.24    3977
70.26    3999
70.28    4011
70.3     3936
70.32    3941
70.34    3928
70.36    3998
70.38    4034
70.4     3949
70.42    3973
70.44    3933
70.46    3913
70.48    3910
70.5     3883
70.52    3910
70.54    3914
70.56    3889
70.58    3883
70.6     3890
70.62    3917
70.64    3935
70.66    3957
70.68    3881
70.7     3891
70.72    3971
70.74    3948
70.76    3830
70.78    3879
70.8     3817
70.82    3810
70.84    3848
70.86    3858
70.88    3851
70.9     3808
70.92    3773
70.94    3799
70.96    3821
70.98    3739
71.0     3796
71.02    3751
71.04    3773
71.06    3751
71.08    3663
71.1     3659
71.12    3795
71.14    3741
71.16    3655
71.18    3658
71.2     3629
71.22    3602
71.24    3592
71.26    3587
71.28    3680
71.3     3643
71.32    3591
71.34    3570
71.36    3596
71.38    3635
71.4     3617
71.42    3492
71.44    3514
71.46    3506
71.48    3529
71.5     3400
71.52    3411
71.54    3415
71.56    3418
71.58    3392
71.6     3407
71.62    3319
71.64    3360
71.66    3334
71.68    3297
71.7     3308
71.72    3393
71.74    3413
71.76    3300
71.78    3281
71.8     3210
71.82    3217
71.84    3203
71.86    3231
71.88    3226
71.9     3206
71.92    3099
71.94    3121
71.96    3056
71.98    3147
72.0     3051
72.02    3056
72.04    3112
72.06    3077
72.08    3020
72.1     3078
72.12    2971
72.14    2918
72.16    2871
72.18    2928
72.2     3001
72.22    2910
72.24    2820
72.26    2870
72.28    2857
72.3     2816
72.32    2820
72.34    2767
72.36    2760
72.38    2824
72.4     2764
72.42    2719
72.44    2686
72.46    2773
72.48    2747
72.5     2690
72.52    2725
72.54    2685
72.56    2664
72.58    2571
72.6     2602
72.62    2581
72.64    2543
72.66    2503
72.68    2470
72.7     2515
72.72    2508
72.74    2497
72.76    2518
72.78    2482
72.8     2455
72.82    2431
72.84    2468
72.86    2423
72.88    2350
72.9     2475
72.92    2454
72.94    2396
72.96    2301
72.98    2296
73.0     2337
73.02    2349
73.04    2309
73.06    2291
73.08    2206
73.1     2172
73.12    2271
73.14    2254
73.16    2241
73.18    2244
73.2     2197
73.22    2089
73.24    2147
73.26    2122
73.28    2127
73.3     2129
73.32    2187
73.34    2154
73.36    2115
73.38    2124
73.4     2131
73.42    2131
73.44    2182
73.46    2147
73.48    2080
73.5     2054
73.52    2065
73.54    2020
73.56    2082
73.58    2045
73.6     2034
73.62    2005
73.64    1960
73.66    1974
73.68    2025
73.7     2032
73.72    2069
73.74    2025
73.76    2035
73.78    1989
73.8     1945
73.82    1946
73.84    1983
73.86    1945
73.88    1938
73.9     1928
73.92    1955
73.94    1953
73.96    1897
73.98    1919
74.0     1913
74.02    1918
74.04    1973
74.06    1932
74.08    1892
74.1     1910
74.12    1930
74.14    1916
74.16    1880
74.18    1851
74.2     1847
74.22    1923
74.24    1971
74.26    1850
74.28    1839
74.3     1869
74.32    1882
74.34    1835
74.36    1825
74.38    1857
74.4     1848
74.42    1819
74.44    1833
74.46    1830
74.48    1816
74.5     1796
74.52    1816
74.54    1840
74.56    1818
74.58    1794
74.6     1835
74.62    1781
74.64    1773
74.66    1809
74.68    1784
74.7     1794
74.72    1818
74.74    1873
74.76    1848
74.78    1791
74.8     1763
74.82    1758
74.84    1735
74.86    1790
74.88    1801
74.9     1756
74.92    1755
74.94    1793
74.96    1803
74.98    1839
75.0     1838
75.02    1821
75.04    1805
75.06    1808
75.08    1785
75.1     1749
75.12    1763
75.14    1785
75.16    1758
75.18    1803
75.2     1820
75.22    1783
75.24    1784
75.26    1778
75.28    1769
75.3     1788
75.32    1805
75.34    1790
75.36    1787
75.38    1787
75.4     1750
75.42    1752
75.44    1796
75.46    1777
75.48    1768
75.5     1746
75.52    1798
75.54    1817
75.56    1788
75.58    1777
75.6     1790
75.62    1778
75.64    1776
75.66    1829
75.68    1766
75.7     1816
75.72    1830
75.74    1828
75.76    1770
75.78    1810
75.8     1789
75.82    1825
75.84    1842
75.86    1839
75.88    1833
75.9     1817
75.92    1726
75.94    1787
75.96    1822
75.98    1764
76.0     1820
76.02    1792
76.04    1800
76.06    1781
76.08    1787
76.1     1773
76.12    1744
76.14    1848
76.16    1878
76.18    1848
76.2     1814
76.22    1858
76.24    1905
76.26    1873
76.28    1830
76.3     1827
76.32    1876
76.34    1866
76.36    1819
76.38    1858
76.4     1916
76.42    1908
76.44    1908
76.46    1887
76.48    1906
76.5     1907
76.52    1890
76.54    1919
76.56    1897
76.58    1893
76.6     1913
76.62    1928
76.64    1965
76.66    1978
76.68    1945
76.7     1959
76.72    1949
76.74    1994
76.76    1956
76.78    1944
76.8     1968
76.82    1954
76.84    1951
76.86    1964
76.88    1953
76.9     1973
76.92    1960
76.94    2020
76.96    2042
76.98    2032
77.0     2016
77.02    2022
77.04    2028
77.06    2059
77.08    2094
77.1     2057
77.12    2112
77.14    2060
77.16    2038
77.18    2101
77.2     2090
77.22    2100
77.24    2152
77.26    2109
77.28    2136
77.3     2126
77.32    2182
77.34    2188
77.36    2140
77.38    2152
77.4     2148
77.42    2167
77.44    2150
77.46    2152
77.48    2155
77.5     2187
77.52    2254
77.54    2252
77.56    2214
77.58    2198
77.6     2227
77.62    2178
77.64    2231
77.66    2242
77.68    2216
77.7     2229
77.72    2250
77.74    2272
77.76    2257
77.78    2247
77.8     2255
77.82    2269
77.84    2273
77.86    2266
77.88    2281
77.9     2320
77.92    2326
77.94    2286
77.96    2319
77.98    2334
78.0     2357
78.02    2299
78.04    2328
78.06    2381
78.08    2394
78.1     2381
78.12    2356
78.14    2313
78.16    2285
78.18    2386
78.2     2419
78.22    2307
78.24    2289
78.26    2435
78.28    2458
78.3     2445
78.32    2382
78.34    2366
78.36    2393
78.38    2404
78.4     2419
78.42    2410
78.44    2463
78.46    2465
78.48    2492
78.5     2436
78.52    2420
78.54    2428
78.56    2452
78.58    2439
78.6     2390
78.62    2366
78.64    2407
78.66    2439
78.68    2455
78.7     2428
78.72    2444
78.74    2498
78.76    2502
78.78    2463
78.8     2400
78.82    2345
78.84    2354
78.86    2428
78.88    2412
78.9     2406
78.92    2438
78.94    2459
78.96    2467
78.98    2472
79.0     2448
79.02    2382
79.04    2351
79.06    2361
79.08    2418
79.1     2365
79.12    2431
79.14    2346
79.16    2346
79.18    2340
79.2     2352
79.22    2325
79.24    2362
79.26    2360
79.28    2362
79.3     2405
79.32    2413
79.34    2366
79.36    2346
79.38    2354
79.4     2305
79.42    2315
79.44    2362
79.46    2304
79.48    2227
79.5     2278
79.52    2314
79.54    2266
79.56    2320
79.58    2298
79.6     2276
79.62    2241
79.64    2215
79.66    2207
79.68    2267
79.7     2277
79.72    2288
79.74    2275
79.76    2241
79.78    2196
79.8     2249
79.82    2206
79.84    2224
79.86    2224
79.88    2189
79.9     2180
79.92    2247
79.94    2181
79.96    2177
79.98    2167
80.0     2193
80.02    2113
80.04    2094
80.06    2153
80.08    2157
80.1     2101
80.12    2116
80.14    2092
80.16    2071
80.18    2098
80.2     2167
80.22    2124
80.24    2105
80.26    2016
80.28    2050
80.3     2064
80.32    1953
80.34    2045
80.36    1967
80.38    2031
80.4     2073
80.42    1992
80.44    1955
80.46    2018
80.48    2005
80.5     1960
80.52    1961
80.54    1920
80.56    1937
80.58    1971
80.6     1925
80.62    1939
80.64    1942
80.66    1924
80.68    1929
80.7     1909
80.72    1919
80.74    1884
80.76    1892
80.78    1924
80.8     1904
80.82    1878
80.84    1943
80.86    1938
80.88    1879
80.9     1859
80.92    1767
80.94    1848
80.96    1829
80.98    1831
81.0     1814
81.02    1853
81.04    1815
81.06    1788
81.08    1765
81.1     1758
81.12    1792
81.14    1807
81.16    1869
81.18    1794
81.2     1816
81.22    1763
81.24    1729
81.26    1747
81.28    1786
81.3     1748
81.32    1758
81.34    1687
81.36    1706
81.38    1708
81.4     1758
81.42    1710
81.44    1728
81.46    1680
81.48    1742
81.5     1722
81.52    1726
81.54    1704
81.56    1754
81.58    1707
81.6     1627
81.62    1675
81.64    1693
81.66    1690
81.68    1695
81.7     1645
81.72    1710
81.74    1716
81.76    1693
81.78    1709
81.8     1687
81.82    1647
81.84    1669
81.86    1671
81.88    1702
81.9     1732
81.92    1699
81.93    1661
81.96    1630
81.98    1695
82.0     1675
82.02    1671
82.04    1639
82.06    1679
82.08    1690
82.1     1703
82.12    1691
82.14    1726
82.16    1647
82.18    1657
82.2     1649
82.22    1719
82.24    1780
82.26    1706
82.28    1707
82.3     1693
82.32    1687
82.34    1695
82.36    1689
82.38    1692
82.4     1708
82.42    1793
82.43    1731
82.46    1700
82.48    1724
82.5     1688
82.52    1722
82.54    1758
82.56    1763
82.58    1693
82.6     1736
82.62    1723
82.64    1762
82.66    1694
82.68    1758
82.7     1786
82.72    1791
82.74    1735
82.76    1728
82.78    1793
82.8     1733
82.82    1795
82.84    1759
82.86    1773
82.88    1747
82.9     1769
82.92    1777
82.93    1798
82.96    1770
82.98    1830
83.0     1832
83.02    1798
83.04    1794
83.06    1792
83.08    1821
83.1     1778
83.12    1834
83.14    1792
83.16    1769
83.18    1763
83.2     1816
83.22    1821
83.24    1827
83.26    1843
83.28    1824
83.3     1860
83.32    1917
83.34    1850
83.36    1877
83.38    1806
83.4     1824
83.42    1833
83.43    1872
83.46    1879
83.48    1920
83.5     1885
83.52    1884
83.54    1924
83.56    1875
83.58    1959
83.6     1873
83.62    1868
83.64    1885
83.66    1863
83.68    1885
83.7     1899
83.72    1937
83.74    1903
83.76    1845
83.78    1904
83.8     1886
83.82    1914
83.84    1918
83.86    1939
83.88    2028
83.9     1929
83.92    1983
83.93    1903
83.96    1888
83.98    1933
84.0     1864
84.02    2010
84.04    1972
84.06    1925
84.08    1974
84.1     1913
84.12    1926
84.14    1974
84.16    1980
84.18    1932
84.2     1930
84.22    1961
84.24    2000
84.26    1945
84.28    1998
84.3     2012
84.32    2027
84.34    1962
84.36    1950
84.38    1893
84.4     2033
84.42    2053
84.43    2012
84.46    1962
84.48    1915
84.5     1928
84.52    1936
84.54    1994
84.56    2008
84.58    2030
84.6     1978
84.62    1912
84.64    1935
84.66    2011
84.68    2000
84.7     1959
84.72    1937
84.74    1992
84.76    2041
84.78    1964
84.8     1998
84.82    1958
84.84    1953
84.86    1953
84.88    1968
84.9     1969
84.92    1986
84.93    1959
84.96    1930
84.98    1873
85.0     1934
85.02    2010
85.04    1921
85.06    1904
85.08    1901
85.1     1962
85.12    1875
85.14    1884
85.16    1929
85.18    1975
85.2     1905
85.22    1889
85.24    1912
85.26    1905
85.28    1972
85.3     1869
85.32    1867
85.34    1925
85.36    1942
85.38    1910
85.4     1898
85.42    1837
85.43    1781
85.46    1866
85.48    1901
85.5     1911
85.52    1820
85.54    1843
85.56    1820
85.58    1901
85.6     1863
85.62    1831
85.64    1825
85.66    1840
85.68    1831
85.7     1857
85.72    1797
85.74    1807
85.76    1783
85.78    1791
85.8     1812
85.82    1781
85.84    1793
85.86    1795
85.88    1820
85.9     1792
85.92    1788
85.93    1795
85.96    1743
85.98    1728
86.0     1761
86.02    1768
86.04    1724
86.06    1742
86.08    1718
86.1     1763
86.12    1735
86.14    1673
86.16    1763
86.18    1737
86.2     1693
86.22    1645
86.24    1727
86.26    1719
86.28    1712
86.3     1699
86.32    1707
86.34    1612
86.36    1688
86.38    1684
86.4     1703
86.42    1632
86.43    1634
86.46    1625
86.48    1649
86.5     1620
86.52    1709
86.54    1670
86.56    1623
86.58    1563
86.6     1655
86.62    1628
86.64    1641
86.66    1644
86.68    1637
86.7     1646
86.72    1576
86.74    1621
86.76    1626
86.78    1576
86.8     1587
86.82    1694
86.84    1618
86.86    1606
86.88    1606
86.9     1567
86.92    1588
86.93    1568
86.96    1506
86.98    1570
87.0     1526
87.02    1513
87.04    1539
87.06    1562
87.08    1573
87.1     1592
87.12    1556
87.14    1572
87.16    1548
87.18    1569
87.2     1550
87.22    1544
87.24    1462
87.26    1576
87.28    1594
87.3     1577
87.32    1544
87.34    1511
87.36    1510
87.38    1525
87.4     1540
87.42    1550
87.43    1554
87.46    1492
87.48    1502
87.5     1545
87.52    1473
87.54    1502
87.56    1493
87.58    1526
87.6     1469
87.62    1494
87.64    1489
87.66    1501
87.68    1525
87.7     1483
87.72    1470
87.74    1475
87.76    1476
87.78    1445
87.8     1525
87.82    1510
87.84    1473
87.86    1472
87.88    1477
87.9     1465
87.92    1503
87.93    1535
87.96    1458
87.98    1505
88.0     1503
88.02    1493
88.04    1452
88.06    1474
88.08    1575
88.1     1483
88.12    1483
88.14    1512
88.16    1542
88.18    1503
88.2     1522
88.22    1484
88.24    1512
88.26    1463
88.28    1423
88.3     1460
88.32    1429
88.34    1455
88.36    1453
88.38    1476
88.4     1487
88.42    1438
88.43    1436
88.46    1491
88.48    1456
88.5     1455
88.52    1395
88.54    1453
88.56    1423
88.58    1477
88.6     1447
88.62    1428
88.64    1390
88.66    1435
88.68    1421
88.7     1442
88.72    1467
88.74    1410
88.76    1451
88.78    1438
88.8     1435
88.82    1370
88.84    1391
88.86    1510
88.88    1424
88.9     1396
88.92    1467
88.93    1444
88.96    1452
88.98    1418
89.0     1426
89.02    1504
89.04    1512
89.06    1473
89.08    1426
89.1     1419
89.12    1473
89.14    1487
89.16    1428
89.18    1431
89.2     1428
89.22    1389
89.24    1399
89.26    1394
89.28    1450
89.3     1454
89.32    1439
89.34    1471
89.36    1474
89.38    1469
89.4     1432
89.42    1470
89.43    1445
89.46    1499
89.48    1422
89.5     1387
89.52    1446
89.54    1443
89.56    1411
89.58    1435
89.6     1366
89.62    1424
89.64    1421
89.66    1478
89.68    1439
89.7     1436
89.72    1469
89.74    1443
89.76    1359
89.78    1471
89.8     1454
89.82    1469
89.84    1437
89.86    1481
89.88    1468
89.9     1463
89.92    1411
89.93    1420
89.96    1498
89.98    1421
90.0     1400
