#PBs_1686_3nm_0311201 - Default scan
20.0     14015
20.02    13853
20.04    13783
20.06    13729
20.08    13682
20.1     13604
20.12    13637
20.14    13784
20.16    13823
20.18    13835
20.2     13692
20.22    13647
20.24    13465
20.26    13624
20.28    13659
20.3     13614
20.32    13709
20.34    13692
20.36    13639
20.38    13622
20.4     13474
20.42    13523
20.44    13675
20.46    13660
20.48    13513
20.5     13582
20.52    13622
20.54    13420
20.56    13294
20.58    13470
20.6     13584
20.62    13606
20.64    13534
20.66    13455
20.68    13406
20.7     13236
20.72    13405
20.74    13522
20.76    13470
20.78    13441
20.8     13489
20.82    13404
20.84    13282
20.86    13336
20.88    13248
20.9     13187
20.92    13435
20.94    13291
20.96    13273
20.98    13160
21.0     13137
21.02    13221
21.04    13343
21.06    13385
21.08    13308
21.1     13474
21.12    13331
21.14    13293
21.16    13432
21.18    13286
21.2     13383
21.22    13410
21.24    13243
21.26    13034
21.28    12951
21.3     12919
21.32    12970
21.34    13077
21.36    13323
21.38    13307
21.4     13309
21.42    13259
21.44    13227
21.46    13201
21.48    13036
21.5     13041
21.52    13067
21.54    13090
21.56    13336
21.58    13166
21.6     12902
21.62    12872
21.64    13038
21.66    12862
21.68    12777
21.7     12790
21.72    12989
21.74    12783
21.76    12775
21.78    12955
21.8     13000
21.82    12852
21.84    12628
21.86    12640
21.88    12719
21.9     12762
21.92    12818
21.94    12677
21.96    12837
21.98    12683
22.0     12545
22.02    12425
22.04    12657
22.06    12762
22.08    12573
22.1     12692
22.12    12617
22.14    12631
22.16    12642
22.18    12496
22.2     12508
22.22    12550
22.24    12561
22.26    12626
22.28    12564
22.3     12537
22.32    12568
22.34    12744
22.36    12653
22.38    12627
22.4     12548
22.42    12797
22.44    12590
22.46    12367
22.48    12506
22.5     12403
22.52    12304
22.54    12445
22.56    12621
22.58    12717
22.6     12646
22.62    12530
22.64    12566
22.66    12585
22.68    12457
22.7     12520
22.72    12439
22.74    12467
22.76    12582
22.78    12507
22.8     12366
22.82    12428
22.84    12439
22.86    12364
22.88    12536
22.9     12680
22.92    12614
22.94    12406
22.96    12467
22.98    12675
23.0     12759
23.02    12662
23.04    12622
23.06    12538
23.08    12650
23.1     12785
23.12    12738
23.14    12805
23.16    12729
23.18    12829
23.2     12909
23.22    12889
23.24    12962
23.26    13038
23.28    12860
23.3     12976
23.32    13056
23.34    13083
23.36    13030
23.38    13017
23.4     13275
23.42    13378
23.44    13298
23.46    13157
23.48    13326
23.5     13523
23.52    13673
23.54    13484
23.56    13581
23.58    13585
23.6     13751
23.62    13693
23.64    13736
23.66    13683
23.68    13684
23.7     13828
23.72    13920
23.74    13954
23.76    14103
23.78    14311
23.8     14236
23.82    14367
23.84    14297
23.86    14273
23.88    14537
23.9     14631
23.92    14739
23.94    14729
23.96    14923
23.98    14928
24.0     14858
24.02    14978
24.04    15090
24.06    15338
24.08    15218
24.1     15500
24.12    15481
24.14    15620
24.16    15880
24.18    15946
24.2     16017
24.22    15966
24.24    15968
24.26    16352
24.28    16271
24.3     16289
24.32    16440
24.34    16445
24.36    16800
24.38    16843
24.4     16790
24.42    16873
24.44    16936
24.46    17301
24.48    17261
24.5     17254
24.52    17328
24.54    17584
24.56    17620
24.58    17816
24.6     17877
24.62    18105
24.64    17984
24.66    17894
24.68    18204
24.7     18675
24.72    18689
24.74    18601
24.76    18651
24.78    18850
24.8     19158
24.82    19353
24.84    19438
24.86    19734
24.88    19701
24.9     19500
24.92    19634
24.94    19927
24.96    19989
24.98    20131
25.0     20093
25.02    20399
25.04    20585
25.06    20307
25.08    20345
25.1     20333
25.12    20467
25.14    20666
25.16    20594
25.18    20536
25.2     20718
25.22    20982
25.24    21205
25.26    21321
25.28    21229
25.3     21134
25.32    21393
25.34    21482
25.36    21617
25.38    21653
25.4     21458
25.42    21668
25.44    21803
25.46    21719
25.48    21824
25.5     21716
25.52    21994
25.54    22288
25.56    22258
25.58    22287
25.6     22245
25.62    22245
25.64    22434
25.66    22586
25.68    22353
25.7     22341
25.72    22423
25.74    22409
25.76    22214
25.78    22304
25.8     22610
25.82    22555
25.84    22345
25.86    22532
25.88    22541
25.9     22333
25.92    22561
25.94    22454
25.96    22424
25.98    22547
26.0     22569
26.02    22445
26.04    22420
26.06    22356
26.08    22449
26.1     22155
26.12    21962
26.14    22133
26.16    22186
26.18    22168
26.2     22130
26.22    22049
26.24    22320
26.26    22031
26.28    21908
26.3     22191
26.32    21875
26.34    21907
26.36    21680
26.38    21708
26.4     22038
26.42    21802
26.44    21440
26.46    21366
26.48    21156
26.5     21102
26.52    21159
26.54    21319
26.56    21087
26.58    21057
26.6     20992
26.62    20741
26.64    20720
26.66    20798
26.68    20675
26.7     20452
26.72    20358
26.74    20425
26.76    20231
26.78    20335
26.8     20232
26.82    19930
26.84    19734
26.86    19867
26.88    19825
26.9     19631
26.92    19664
26.94    19302
26.96    19351
26.98    19322
27.0     19100
27.02    19047
27.04    19091
27.06    18866
27.08    18874
27.1     18753
27.12    18763
27.14    18502
27.16    18361
27.18    18233
27.2     18051
27.22    18213
27.24    18179
27.26    17981
27.28    17947
27.3     17783
27.32    17786
27.34    17643
27.36    17508
27.38    17491
27.4     17452
27.42    17361
27.44    17403
27.46    17275
27.48    17190
27.5     17122
27.52    16833
27.54    16861
27.56    16972
27.58    16958
27.6     16830
27.62    16825
27.64    16731
27.66    16678
27.68    16464
27.7     16446
27.72    16676
27.74    16635
27.76    16512
27.78    16505
27.8     16514
27.82    16404
27.84    16602
27.86    16467
27.88    16512
27.9     16371
27.92    16454
27.94    16638
27.96    16587
27.98    16693
28.0     16633
28.02    16718
28.04    16819
28.06    16900
28.08    16744
28.1     16714
28.12    16964
28.14    16882
28.16    17025
28.18    16973
28.2     17209
28.22    17252
28.24    17273
28.26    17399
28.28    17627
28.3     17639
28.32    17571
28.34    17580
28.36    17713
28.38    17805
28.4     18033
28.42    18234
28.44    18218
28.46    18008
28.48    18177
28.5     18257
28.52    18311
28.54    18621
28.56    18936
28.58    18866
28.6     18988
28.62    19026
28.64    19202
28.66    19349
28.68    19495
28.7     19559
28.72    19995
28.74    19696
28.76    19706
28.78    19704
28.8     19807
28.82    19855
28.84    20109
28.86    20024
28.88    20338
28.9     20534
28.92    20602
28.94    20558
28.96    20741
28.98    20836
29.0     20904
29.02    21350
29.04    21391
29.06    21206
29.08    21430
29.1     21771
29.12    21852
29.14    21795
29.16    21772
29.18    22019
29.2     22022
29.22    21908
29.24    22461
29.26    22459
29.28    22598
29.3     22501
29.32    22817
29.34    22675
29.36    22892
29.38    23155
29.4     23056
29.42    23396
29.44    23135
29.46    23061
29.48    23274
29.5     23394
29.52    23585
29.54    23673
29.56    23488
29.58    23428
29.6     23721
29.62    23585
29.64    23512
29.66    23651
29.68    23594
29.7     23707
29.72    23760
29.74    23729
29.76    23800
29.78    23911
29.8     23521
29.82    23824
29.84    23857
29.86    23789
29.88    23759
29.9     24037
29.92    24000
29.94    23712
29.96    23871
29.98    23686
30.0     23669
30.02    23772
30.04    23528
30.06    23408
30.08    23465
30.1     23460
30.12    23309
30.14    23214
30.16    23192
30.18    23095
30.2     23184
30.22    22968
30.24    22897
30.26    22894
30.28    22875
30.3     22782
30.32    22707
30.34    22452
30.36    22514
30.38    22212
30.4     22089
30.42    22130
30.44    22182
30.46    21789
30.48    21673
30.5     21318
30.52    21342
30.54    21294
30.56    21173
30.58    21062
30.6     20817
30.62    20832
30.64    20787
30.66    20609
30.68    20518
30.7     20361
30.72    20336
30.74    20110
30.76    20027
30.78    19809
30.8     19419
30.82    19500
30.84    19240
30.86    19081
30.88    18939
30.9     18743
30.92    18309
30.94    18680
30.96    18402
30.98    18363
31.0     18156
31.02    17630
31.04    17632
31.06    17584
31.08    17375
31.1     17148
31.12    17015
31.14    16761
31.16    16477
31.18    16534
31.2     16395
31.22    16151
31.24    16006
31.26    15999
31.28    15674
31.3     15450
31.32    15237
31.34    15106
31.36    14954
31.38    14683
31.4     14584
31.42    14446
31.44    14433
31.46    14357
31.48    14102
31.5     13614
31.52    13756
31.54    13554
31.56    13487
31.58    13480
31.6     13369
31.62    13376
31.64    12975
31.66    12831
31.68    12586
31.7     12723
31.72    12656
31.74    12293
31.76    12312
31.78    12064
31.8     11904
31.82    11810
31.84    11773
31.86    11658
31.88    11628
31.9     11367
31.92    11239
31.94    11028
31.96    11124
31.98    10952
32.0     10905
32.02    10784
32.04    10594
32.06    10466
32.08    10282
32.1     10304
32.12    10447
32.14    10298
32.16    10058
32.18    9956
32.2     9915
32.22    9907
32.24    9679
32.26    9636
32.28    9522
32.3     9427
32.32    9415
32.34    9112
32.36    9155
32.38    9265
32.4     9246
32.42    9140
32.44    9193
32.46    8860
32.48    8883
32.5     8808
32.52    8707
32.54    8603
32.56    8737
32.58    8655
32.6     8563
32.62    8528
32.64    8651
32.66    8430
32.68    8406
32.7     8434
32.72    8435
32.74    8228
32.76    8170
32.78    8176
32.8     8312
32.82    8167
32.84    8095
32.86    8061
32.88    8197
32.9     8010
32.92    7964
32.94    8073
32.96    7904
32.98    7848
33.0     8079
33.02    7862
33.04    7915
33.06    7989
33.08    7687
33.1     7681
33.12    7803
33.14    7761
33.16    7786
33.18    7762
33.2     7787
33.22    7772
33.24    7590
33.26    7718
33.28    7609
33.3     7651
33.32    7553
33.34    7499
33.36    7650
33.38    7529
33.4     7539
33.42    7350
33.44    7397
33.46    7508
33.48    7537
33.5     7633
33.52    7381
33.54    7430
33.56    7469
33.58    7473
33.6     7255
33.62    7332
33.64    7513
33.66    7303
33.68    7340
33.7     7262
33.72    7258
33.74    7294
33.76    7310
33.78    7212
33.8     7182
33.82    7196
33.84    7216
33.86    7212
33.88    7339
33.9     7160
33.92    7119
33.94    7189
33.96    7138
33.98    7175
34.0     7334
34.02    7159
34.04    7130
34.06    7131
34.08    7010
34.1     7164
34.12    6993
34.14    6919
34.16    6906
34.18    6982
34.2     6983
34.22    6953
34.24    6856
34.26    7038
34.28    6976
34.3     7065
34.32    6833
34.34    6823
34.36    6945
34.38    6887
34.4     6965
34.42    6836
34.44    6742
34.46    6875
34.48    6875
34.5     6659
34.52    6781
34.54    6852
34.56    6914
34.58    6805
34.6     6846
34.62    6804
34.64    6664
34.66    6704
34.68    6725
34.7     6678
34.72    6641
34.74    6601
34.76    6709
34.78    6630
34.8     6710
34.82    6696
34.84    6765
34.86    6716
34.88    6640
34.9     6608
34.92    6647
34.94    6617
34.96    6561
34.98    6544
35.0     6570
35.02    6507
35.04    6541
35.06    6567
35.08    6536
35.1     6410
35.12    6380
35.14    6506
35.16    6503
35.18    6555
35.2     6577
35.22    6512
35.24    6481
35.26    6463
35.28    6273
35.3     6381
35.32    6432
35.34    6419
35.36    6308
35.38    6419
35.4     6394
35.42    6407
35.44    6298
35.46    6384
35.48    6333
35.5     6397
35.52    6403
35.54    6368
35.56    6398
35.58    6361
35.6     6360
35.62    6424
35.64    6293
35.66    6419
35.68    6306
35.7     6358
35.72    6345
35.74    6269
35.76    6417
35.78    6428
35.8     6359
35.82    6290
35.84    6302
35.86    6332
35.88    6373
35.9     6399
35.92    6196
35.94    6221
35.96    6286
35.98    6353
36.0     6313
36.02    6348
36.04    6203
36.06    6246
36.08    6203
36.1     6163
36.12    6211
36.14    6252
36.16    6231
36.18    6244
36.2     6230
36.22    6216
36.24    6166
36.26    6102
36.28    6300
36.3     6374
36.32    6230
36.34    6214
36.36    6239
36.38    6141
36.4     6260
36.42    6259
36.44    6118
36.46    6143
36.48    6232
36.5     6315
36.52    6241
36.54    6099
36.56    6189
36.58    6242
36.6     6231
36.62    6103
36.64    5981
36.66    6202
36.68    6202
36.7     6110
36.72    6055
36.74    6148
36.76    6091
36.78    6203
36.8     6226
36.82    6334
36.84    6095
36.86    6201
36.88    6122
36.9     6190
36.92    6277
36.94    6181
36.96    6204
36.98    6172
37.0     6177
37.02    6201
37.04    6313
37.06    6125
37.08    6336
37.1     6308
37.12    6134
37.14    6193
37.16    6187
37.18    6216
37.2     6277
37.22    6322
37.24    6202
37.26    6064
37.28    6151
37.3     6145
37.32    6163
37.34    6285
37.36    6273
37.38    6363
37.4     6152
37.42    6239
37.44    6334
37.46    6303
37.48    6258
37.5     6183
37.52    6228
37.54    6147
37.56    6317
37.58    6349
37.6     6343
37.62    6300
37.64    6252
37.66    6319
37.68    6331
37.7     6250
37.72    6302
37.74    6359
37.76    6238
37.78    6192
37.8     6259
37.82    6340
37.84    6361
37.86    6325
37.88    6182
37.9     6300
37.92    6450
37.94    6270
37.96    6255
37.98    6188
38.0     6274
38.02    6352
38.04    6368
38.06    6402
38.08    6331
38.1     6391
38.12    6365
38.14    6408
38.16    6340
38.18    6223
38.2     6266
38.22    6143
38.24    6347
38.26    6376
38.28    6328
38.3     6289
38.32    6361
38.34    6273
38.36    6481
38.38    6389
38.4     6434
38.42    6412
38.44    6492
38.46    6401
38.48    6373
38.5     6473
38.52    6358
38.54    6277
38.56    6341
38.58    6448
38.6     6494
38.62    6436
38.64    6398
38.66    6456
38.68    6439
38.7     6428
38.72    6503
38.74    6461
38.76    6561
38.78    6363
38.8     6334
38.82    6419
38.84    6363
38.86    6496
38.88    6449
38.9     6473
38.92    6390
38.94    6482
38.96    6411
38.98    6446
39.0     6527
39.02    6453
39.04    6491
39.06    6337
39.08    6440
39.1     6579
39.12    6602
39.14    6549
39.16    6563
39.18    6420
39.2     6514
39.22    6582
39.24    6563
39.26    6619
39.28    6487
39.3     6709
39.32    6653
39.34    6532
39.36    6666
39.38    6778
39.4     6799
39.42    6814
39.44    6730
39.46    6756
39.48    6690
39.5     6824
39.52    6732
39.54    6818
39.56    6781
39.58    6802
39.6     6935
39.62    6910
39.64    7025
39.66    6871
39.68    7109
39.7     7112
39.72    6994
39.74    7242
39.76    7342
39.78    7254
39.8     7227
39.82    7373
39.84    7400
39.86    7322
39.88    7390
39.9     7588
39.92    7534
39.94    7599
39.96    7673
39.98    7686
40.0     7866
40.02    7853
40.04    7828
40.06    7989
40.08    8020
40.1     8026
40.12    8142
40.14    8302
40.16    8316
40.18    8435
40.2     8557
40.22    8517
40.24    8681
40.26    8700
40.28    8801
40.3     8993
40.32    9108
40.34    9106
40.36    9139
40.38    9372
40.4     9327
40.42    9491
40.44    9459
40.46    9768
40.48    9830
40.5     9994
40.52    10045
40.54    10100
40.56    10303
40.58    10390
40.6     10348
40.62    10403
40.64    10739
40.66    10891
40.68    10985
40.7     11116
40.72    11220
40.74    11235
40.76    11627
40.78    11678
40.8     11881
40.82    12033
40.84    12144
40.86    12335
40.88    12383
40.9     12732
40.92    12825
40.94    12836
40.96    13059
40.98    13032
41.0     13357
41.02    13550
41.04    13652
41.06    13889
41.08    14010
41.1     14213
41.12    14432
41.14    14604
41.16    14609
41.18    15038
41.2     14994
41.22    15143
41.24    15287
41.26    15704
41.28    15721
41.3     16017
41.32    16150
41.34    16253
41.36    16412
41.38    16831
41.4     16768
41.42    17105
41.44    17381
41.46    17438
41.48    17799
41.5     17742
41.52    18057
41.54    18395
41.56    18213
41.58    18552
41.6     18751
41.62    18942
41.64    18997
41.66    19238
41.68    19342
41.7     19493
41.72    19584
41.74    19807
41.76    19938
41.78    20389
41.8     20613
41.82    20522
41.84    20872
41.86    21007
41.88    21179
41.9     21399
41.92    21570
41.94    21784
41.96    21687
41.98    22027
42.0     22455
42.02    22345
42.04    22312
42.06    22682
42.08    22548
42.1     22918
42.12    23121
42.14    23262
42.16    23334
42.18    23546
42.2     23467
42.22    23528
42.24    23565
42.26    23718
42.28    23647
42.3     24075
42.32    24151
42.34    24216
42.36    23939
42.38    24680
42.4     24779
42.42    24672
42.44    24985
42.46    24830
42.48    25201
42.5     25099
42.52    25132
42.54    25244
42.56    25141
42.58    25324
42.6     25508
42.62    25619
42.64    25669
42.66    25618
42.68    25697
42.7     25360
42.72    25615
42.74    25693
42.76    25549
42.78    25633
42.8     25664
42.82    25812
42.84    25809
42.86    25657
42.88    25630
42.9     25851
42.92    25692
42.94    25897
42.96    25860
42.98    25641
43.0     25455
43.02    25196
43.04    25382
43.06    25510
43.08    25364
43.1     25373
43.12    25411
43.14    25407
43.16    25208
43.18    25302
43.2     25502
43.22    25374
43.24    25208
43.26    24904
43.28    25014
43.3     24700
43.32    24784
43.34    24403
43.36    24570
43.38    24302
43.4     24462
43.42    24482
43.44    23952
43.46    23931
43.48    24087
43.5     23808
43.52    23614
43.54    23476
43.56    23316
43.58    23158
43.6     23105
43.62    22849
43.64    22817
43.66    22702
43.68    22601
43.7     22290
43.72    22091
43.74    22411
43.76    22080
43.78    21731
43.8     21545
43.82    21595
43.84    21306
43.86    21201
43.88    20804
43.9     20978
43.92    20728
43.94    20252
43.96    20395
43.98    20149
44.0     20024
44.02    19921
44.04    19912
44.06    19550
44.08    19460
44.1     19158
44.12    18939
44.14    18695
44.16    18815
44.18    18441
44.2     18121
44.22    18089
44.24    17950
44.26    17605
44.28    17495
44.3     17129
44.32    17331
44.34    16942
44.36    16780
44.38    16710
44.4     16380
44.42    16268
44.44    16089
44.46    15824
44.48    15673
44.5     15462
44.52    15319
44.54    15199
44.56    15117
44.58    14883
44.6     14620
44.62    14483
44.64    14365
44.66    14305
44.68    14182
44.7     13816
44.72    13665
44.74    13452
44.76    13399
44.78    13262
44.8     13080
44.82    12955
44.84    12926
44.86    12762
44.88    12610
44.9     12581
44.92    12322
44.94    12075
44.96    11891
44.98    11818
45.0     11628
45.02    11617
45.04    11427
45.06    11220
45.08    11274
45.1     11026
45.12    10773
45.14    10695
45.16    10576
45.18    10528
45.2     10251
45.22    10277
45.24    10028
45.26    10055
45.28    10138
45.3     9824
45.32    9715
45.34    9555
45.36    9373
45.38    9369
45.4     9270
45.42    9149
45.44    9145
45.46    8871
45.48    8867
45.5     8868
45.52    8721
45.54    8804
45.56    8548
45.58    8307
45.6     8170
45.62    8217
45.64    8209
45.66    8240
45.68    8107
45.7     8068
45.72    7913
45.74    7861
45.76    7747
45.78    7679
45.8     7674
45.82    7690
45.84    7668
45.86    7529
45.88    7348
45.9     7413
45.92    7277
45.94    7265
45.96    7265
45.98    7243
46.0     7079
46.02    7075
46.04    6999
46.06    6929
46.08    6779
46.1     6733
46.12    6729
46.14    6805
46.16    6679
46.18    6626
46.2     6598
46.22    6548
46.24    6550
46.26    6504
46.28    6420
46.3     6431
46.32    6561
46.34    6315
46.36    6361
46.38    6410
46.4     6330
46.42    6325
46.44    6169
46.46    6316
46.48    6223
46.5     6277
46.52    6223
46.54    6168
46.56    6130
46.58    6090
46.6     6183
46.62    6105
46.64    6096
46.66    6058
46.68    5935
46.7     6007
46.72    5984
46.74    5918
46.76    6008
46.78    5912
46.8     6021
46.82    6028
46.84    5917
46.86    5824
46.88    5892
46.9     5934
46.92    5819
46.94    5832
46.96    5810
46.98    5800
47.0     5747
47.02    5731
47.04    5813
47.06    5862
47.08    5744
47.1     5745
47.12    5785
47.14    5781
47.16    5683
47.18    5839
47.2     5667
47.22    5743
47.24    5664
47.26    5680
47.28    5735
47.3     5643
47.32    5720
47.34    5720
47.36    5689
47.38    5609
47.4     5562
47.42    5709
47.44    5597
47.46    5634
47.48    5697
47.5     5615
47.52    5720
47.54    5829
47.56    5653
47.58    5555
47.6     5581
47.62    5598
47.64    5551
47.66    5714
47.68    5701
47.7     5602
47.72    5692
47.74    5786
47.76    5617
47.78    5695
47.8     5715
47.82    5761
47.84    5772
47.86    5740
47.88    5799
47.9     5676
47.92    5818
47.94    5881
47.96    5759
47.98    5775
48.0     5787
48.02    5723
48.04    5797
48.06    5863
48.08    5786
48.1     5848
48.12    5845
48.14    5857
48.16    5952
48.18    5948
48.2     5977
48.22    5881
48.24    5941
48.26    6008
48.28    5967
48.3     5987
48.32    6099
48.34    6049
48.36    5999
48.38    6231
48.4     6263
48.42    6092
48.44    6112
48.46    6255
48.48    6291
48.5     6301
48.52    6213
48.54    6433
48.56    6402
48.58    6432
48.6     6451
48.62    6313
48.64    6479
48.66    6528
48.68    6653
48.7     6539
48.72    6614
48.74    6748
48.76    6775
48.78    6773
48.8     6752
48.82    6931
48.84    6860
48.86    6869
48.88    6867
48.9     6906
48.92    7058
48.94    7120
48.96    7150
48.98    7246
49.0     7304
49.02    7161
49.04    7249
49.06    7240
49.08    7384
49.1     7430
49.12    7456
49.14    7533
49.16    7551
49.18    7651
49.2     7546
49.22    7627
49.24    7753
49.26    7765
49.28    7737
49.3     7856
49.32    7920
49.34    8082
49.36    7990
49.38    7919
49.4     8166
49.42    8148
49.44    8222
49.46    8149
49.48    8357
49.5     8343
49.52    8388
49.54    8315
49.56    8449
49.58    8442
49.6     8522
49.62    8588
49.64    8464
49.66    8692
49.68    8661
49.7     8829
49.72    8826
49.74    8867
49.76    8821
49.78    8906
49.8     9012
49.82    8993
49.84    9051
49.86    9144
49.88    8998
49.9     9158
49.92    9179
49.94    9341
49.96    9141
49.98    9197
50.0     9250
50.02    9291
50.04    9234
50.06    9415
50.08    9427
50.1     9450
50.12    9584
50.14    9423
50.16    9469
50.18    9711
50.2     9622
50.22    9665
50.24    9769
50.26    9690
50.28    9729
50.3     9662
50.32    9622
50.34    9754
50.36    9710
50.38    9634
50.4     9727
50.42    9739
50.44    9867
50.46    9890
50.48    9855
50.5     9867
50.52    10044
50.54    9895
50.56    9845
50.58    9830
50.6     9908
50.62    10012
50.64    9910
50.66    9884
50.68    9752
50.7     9869
50.72    10033
50.74    9973
50.76    9912
50.78    9825
50.8     10017
50.82    9961
50.84    9923
50.86    9874
50.88    9891
50.9     9798
50.92    9924
50.94    9905
50.96    9822
50.98    9852
51.0     9858
51.02    9758
51.04    9720
51.06    9814
51.08    9754
51.1     9839
51.12    9804
51.14    9743
51.16    9822
51.18    9686
51.2     9574
51.22    9649
51.24    9542
51.26    9433
51.28    9463
51.3     9540
51.32    9371
51.34    9438
51.36    9455
51.38    9378
51.4     9277
51.42    9398
51.44    9432
51.46    9382
51.48    9333
51.5     9453
51.52    9265
51.54    9175
51.56    9150
51.58    9110
51.6     9098
51.62    9055
51.64    9109
51.66    9003
51.68    8970
51.7     8879
51.72    8824
51.74    8895
51.76    8667
51.78    8720
51.8     8736
51.82    8726
51.84    8579
51.86    8467
51.88    8497
51.9     8502
51.92    8472
51.94    8456
51.96    8474
51.98    8310
52.0     8299
52.02    8296
52.04    8252
52.06    8184
52.08    8232
52.1     8196
52.12    8217
52.14    8130
52.16    8052
52.18    7961
52.2     8104
52.22    7986
52.24    8009
52.26    7885
52.28    7877
52.3     7653
52.32    7709
52.34    7599
52.36    7690
52.38    7497
52.4     7506
52.42    7531
52.44    7547
52.46    7360
52.48    7470
52.5     7476
52.52    7418
52.54    7290
52.56    7188
52.58    7327
52.6     7300
52.62    7109
52.64    7137
52.66    7135
52.68    7098
52.7     7057
52.72    6976
52.74    6957
52.76    6902
52.78    6840
52.8     6881
52.82    6794
52.84    6903
52.86    6870
52.88    6808
52.9     6771
52.92    6770
52.94    6802
52.96    6725
52.98    6569
53.0     6605
53.02    6688
53.04    6613
53.06    6475
53.08    6405
53.1     6544
53.12    6444
53.14    6482
53.16    6436
53.18    6264
53.2     6342
53.22    6222
53.24    6185
53.26    6078
53.28    6170
53.3     6106
53.32    6209
53.34    6159
53.36    6150
53.38    6005
53.4     6061
53.42    6074
53.44    6142
53.46    6039
53.48    6125
53.5     5962
53.52    5957
53.54    5877
53.56    6015
53.58    5872
53.6     5741
53.62    5879
53.64    5824
53.66    5804
53.68    5805
53.7     5772
53.72    5682
53.74    5690
53.76    5579
53.78    5717
53.8     5575
53.82    5601
53.84    5669
53.86    5575
53.88    5494
53.9     5594
53.92    5612
53.94    5550
53.96    5421
53.98    5412
54.0     5507
54.02    5426
54.04    5336
54.06    5443
54.08    5363
54.1     5197
54.12    5278
54.14    5279
54.16    5268
54.18    5360
54.2     5341
54.22    5239
54.24    5082
54.26    5200
54.28    5154
54.3     5103
54.32    5128
54.34    5198
54.36    5129
54.38    5162
54.4     5005
54.42    5132
54.44    5091
54.46    5038
54.48    5081
54.5     4917
54.52    4954
54.54    4968
54.56    5010
54.58    4953
54.6     5008
54.62    4904
54.64    4880
54.66    4794
54.68    4912
54.7     4799
54.72    4813
54.74    4729
54.76    4695
54.78    4765
54.8     4714
54.82    4629
54.84    4690
54.86    4700
54.88    4707
54.9     4693
54.92    4593
54.94    4586
54.96    4676
54.98    4620
55.0     4602
55.02    4643
55.04    4519
55.06    4522
55.08    4556
55.1     4553
55.12    4595
55.14    4461
55.16    4447
55.18    4373
55.2     4502
55.22    4401
55.24    4307
55.26    4352
55.28    4402
55.3     4364
55.32    4277
55.34    4208
55.36    4267
55.38    4345
55.4     4279
55.42    4239
55.44    4299
55.46    4217
55.48    4301
55.5     4276
55.52    4262
55.54    4116
55.56    4182
55.58    4150
55.6     4200
55.62    4129
55.64    4113
55.66    4179
55.68    4054
55.7     4097
55.72    4079
55.74    4037
55.76    4054
55.78    4084
55.8     4087
55.82    4156
55.84    4037
55.86    4042
55.88    4024
55.9     3986
55.92    4006
55.94    4073
55.96    4046
55.98    3973
56.0     3928
56.02    4010
56.04    3899
56.06    3942
56.08    3956
56.1     3928
56.12    3910
56.14    3791
56.16    3873
56.18    3868
56.2     3949
56.22    3940
56.24    3836
56.26    3788
56.28    3885
56.3     3854
56.32    3779
56.34    3774
56.36    3838
56.38    3820
56.4     3745
56.42    3834
56.44    3789
56.46    3782
56.48    3771
56.5     3798
56.52    3795
56.54    3863
56.56    3835
56.58    3759
56.6     3768
56.62    3778
56.64    3771
56.66    3760
56.68    3697
56.7     3689
56.72    3702
56.74    3740
56.76    3672
56.78    3717
56.8     3822
56.82    3700
56.84    3638
56.86    3657
56.88    3774
56.9     3688
56.92    3643
56.94    3722
56.96    3794
56.98    3701
57.0     3643
57.02    3653
57.04    3660
57.06    3783
57.08    3681
57.1     3572
57.12    3588
57.14    3687
57.16    3680
57.18    3693
57.2     3659
57.22    3620
57.24    3620
57.26    3622
57.28    3620
57.3     3587
57.32    3620
57.34    3628
57.36    3717
57.38    3667
57.4     3665
57.42    3604
57.44    3587
57.46    3695
57.48    3591
57.5     3643
57.52    3627
57.54    3606
57.56    3559
57.58    3572
57.6     3692
57.62    3559
57.64    3631
57.66    3577
57.68    3633
57.7     3620
57.72    3577
57.74    3619
57.76    3618
57.78    3561
57.8     3568
57.82    3604
57.84    3607
57.86    3600
57.88    3577
57.9     3541
57.92    3634
57.94    3590
57.96    3480
57.98    3542
58.0     3498
58.02    3535
58.04    3592
58.06    3567
58.08    3625
58.1     3538
58.12    3539
58.14    3490
58.16    3623
58.18    3558
58.2     3563
58.22    3540
58.24    3635
58.26    3617
58.28    3583
58.3     3524
58.32    3532
58.34    3463
58.36    3568
58.38    3492
58.4     3439
58.42    3501
58.44    3570
58.46    3536
58.48    3524
58.5     3556
58.52    3472
58.54    3474
58.56    3566
58.58    3584
58.6     3532
58.62    3537
58.64    3520
58.66    3548
58.68    3566
58.7     3562
58.72    3507
58.74    3576
58.76    3512
58.78    3477
58.8     3489
58.82    3483
58.84    3509
58.86    3555
58.88    3431
58.9     3486
58.92    3468
58.94    3538
58.96    3563
58.98    3614
59.0     3546
59.02    3488
59.04    3466
59.06    3432
59.08    3436
59.1     3453
59.12    3514
59.14    3513
59.16    3432
59.18    3450
59.2     3505
59.22    3478
59.24    3472
59.26    3460
59.28    3484
59.3     3454
59.32    3517
59.34    3510
59.36    3473
59.38    3437
59.4     3432
59.42    3471
59.44    3409
59.46    3493
59.48    3431
59.5     3502
59.52    3518
59.54    3395
59.56    3470
59.58    3493
59.6     3511
59.62    3484
59.64    3483
59.66    3401
59.68    3468
59.7     3510
59.72    3517
59.74    3514
59.76    3438
59.78    3537
59.8     3426
59.82    3581
59.84    3513
59.86    3477
59.88    3484
59.9     3479
59.92    3473
59.94    3491
59.96    3487
59.98    3435
60.0     3498
60.02    3459
60.04    3538
60.06    3536
60.08    3534
60.1     3512
60.12    3537
60.14    3552
60.16    3457
60.18    3462
60.2     3562
60.22    3523
60.24    3484
60.26    3492
60.28    3570
60.3     3531
60.32    3478
60.34    3491
60.36    3487
60.38    3501
60.4     3527
60.42    3556
60.44    3552
60.46    3520
60.48    3488
60.5     3535
60.52    3583
60.54    3538
60.56    3553
60.58    3534
60.6     3569
60.62    3590
60.64    3550
60.66    3606
60.68    3558
60.7     3609
60.72    3603
60.74    3624
60.76    3661
60.78    3604
60.8     3609
60.82    3607
60.84    3598
60.86    3605
60.88    3651
60.9     3651
60.92    3623
60.94    3696
60.96    3724
60.98    3631
61.0     3617
61.02    3585
61.04    3676
61.06    3695
61.08    3697
61.1     3657
61.12    3657
61.14    3582
61.16    3606
61.18    3626
61.2     3645
61.22    3679
61.24    3707
61.26    3728
61.28    3701
61.3     3721
61.32    3798
61.34    3689
61.36    3700
61.38    3716
61.4     3729
61.42    3709
61.44    3664
61.46    3735
61.48    3736
61.5     3702
61.52    3708
61.54    3727
61.56    3743
61.58    3731
61.6     3777
61.62    3699
61.64    3698
61.66    3707
61.68    3736
61.7     3718
61.72    3663
61.74    3719
61.76    3728
61.78    3776
61.8     3752
61.82    3742
61.84    3760
61.86    3696
61.88    3761
61.9     3824
61.92    3803
61.94    3796
61.96    3801
61.98    3746
62.0     3766
62.02    3778
62.04    3744
62.06    3739
62.08    3655
62.1     3678
62.12    3734
62.14    3791
62.16    3780
62.18    3781
62.2     3758
62.22    3825
62.24    3751
62.26    3790
62.28    3784
62.3     3703
62.32    3713
62.34    3779
62.36    3799
62.38    3784
62.4     3778
62.42    3805
62.44    3805
62.46    3770
62.48    3871
62.5     3880
62.52    3726
62.54    3722
62.56    3719
62.58    3748
62.6     3740
62.62    3758
62.64    3778
62.66    3747
62.68    3709
62.7     3807
62.72    3789
62.74    3752
62.76    3774
62.78    3710
62.8     3699
62.82    3682
62.84    3694
62.86    3722
62.88    3676
62.9     3698
62.92    3673
62.94    3722
62.96    3745
62.98    3678
63.0     3661
63.02    3616
63.04    3692
63.06    3698
63.08    3675
63.1     3602
63.12    3664
63.14    3606
63.16    3676
63.18    3706
63.2     3687
63.22    3660
63.24    3625
63.26    3616
63.28    3567
63.3     3595
63.32    3608
63.34    3683
63.36    3522
63.38    3585
63.4     3649
63.42    3625
63.44    3529
63.46    3589
63.48    3547
63.5     3554
63.52    3567
63.54    3552
63.56    3546
63.58    3495
63.6     3527
63.62    3538
63.64    3522
63.66    3514
63.68    3457
63.7     3531
63.72    3536
63.74    3580
63.76    3533
63.78    3539
63.8     3511
63.82    3506
63.84    3520
63.86    3473
63.88    3537
63.9     3503
63.92    3466
63.94    3408
63.96    3386
63.98    3396
64.0     3431
64.02    3442
64.04    3439
64.06    3466
64.08    3470
64.1     3440
64.12    3338
64.14    3333
64.16    3283
64.18    3282
64.2     3350
64.22    3362
64.24    3469
64.26    3418
64.28    3342
64.3     3372
64.32    3360
64.34    3303
64.36    3371
64.38    3275
64.4     3331
64.42    3348
64.44    3418
64.46    3327
64.48    3336
64.5     3392
64.52    3361
64.54    3387
64.56    3253
64.58    3339
64.6     3323
64.62    3232
64.64    3306
64.66    3382
64.68    3328
64.7     3294
64.72    3267
64.74    3260
64.76    3299
64.78    3283
64.8     3290
64.82    3270
64.84    3259
64.86    3240
64.88    3264
64.9     3280
64.92    3168
64.94    3260
64.96    3268
64.98    3259
65.0     3261
65.02    3253
65.04    3239
65.06    3266
65.08    3325
65.1     3214
65.12    3201
65.14    3230
65.16    3252
65.18    3301
65.2     3274
65.22    3270
65.24    3262
65.26    3278
65.28    3343
65.3     3357
65.32    3289
65.34    3337
65.36    3367
65.38    3293
65.4     3278
65.42    3302
65.44    3286
65.46    3348
65.48    3332
65.5     3396
65.52    3328
65.54    3330
65.56    3312
65.58    3362
65.6     3353
65.62    3447
65.64    3406
65.66    3386
65.68    3383
65.7     3335
65.72    3492
65.74    3479
65.76    3418
65.78    3489
65.8     3510
65.82    3490
65.84    3472
65.86    3476
65.88    3479
65.9     3536
65.92    3516
65.94    3511
65.96    3502
65.98    3547
66.0     3575
66.02    3564
66.04    3517
66.06    3515
66.08    3533
66.1     3558
66.12    3571
66.14    3597
66.16    3621
66.18    3629
66.2     3707
66.22    3683
66.24    3705
66.26    3646
66.28    3643
66.3     3723
66.32    3748
66.34    3783
66.36    3777
66.38    3696
66.4     3708
66.42    3720
66.44    3745
66.46    3737
66.48    3861
66.5     3795
66.52    3803
66.54    3796
66.56    3842
66.58    3888
66.6     3954
66.62    3899
66.64    3919
66.66    3915
66.68    3977
66.7     4027
66.72    4017
66.74    3992
66.76    4033
66.78    4100
66.8     4061
66.82    4019
66.84    4023
66.86    4072
66.88    4076
66.9     4085
66.92    4124
66.94    4137
66.96    4175
66.98    4205
67.0     4251
67.02    4178
67.04    4243
67.06    4265
67.08    4296
67.1     4317
67.12    4257
67.14    4347
67.16    4303
67.18    4307
67.2     4420
67.22    4439
67.24    4454
67.26    4430
67.28    4460
67.3     4428
67.32    4446
67.34    4478
67.36    4536
67.38    4528
67.4     4546
67.42    4558
67.44    4576
67.46    4585
67.48    4614
67.5     4665
67.52    4614
67.54    4668
67.56    4678
67.58    4644
67.6     4764
67.62    4757
67.64    4741
67.66    4789
67.68    4789
67.7     4735
67.72    4825
67.74    4817
67.76    4901
67.78    4824
67.8     4885
67.82    4965
67.84    4971
67.86    4980
67.88    5024
67.9     4963
67.92    4974
67.94    4950
67.96    4983
67.98    5022
68.0     5121
68.02    5099
68.04    5093
68.06    5177
68.08    5126
68.1     5050
68.12    5101
68.14    5155
68.16    5226
68.18    5192
68.2     5223
68.22    5270
68.24    5233
68.26    5238
68.28    5217
68.3     5240
68.32    5337
68.34    5353
68.36    5335
68.38    5403
68.4     5368
68.42    5332
68.44    5395
68.46    5413
68.48    5422
68.5     5430
68.52    5441
68.54    5530
68.56    5506
68.58    5499
68.6     5499
68.62    5456
68.64    5535
68.66    5457
68.68    5461
68.7     5516
68.72    5558
68.74    5558
68.76    5618
68.78    5584
68.8     5639
68.82    5600
68.84    5552
68.86    5633
68.88    5659
68.9     5671
68.92    5600
68.94    5729
68.96    5793
68.98    5679
69.0     5703
69.02    5728
69.04    5719
69.06    5746
69.08    5757
69.1     5766
69.12    5764
69.14    5731
69.16    5709
69.18    5748
69.2     5815
69.22    5746
69.24    5776
69.26    5843
69.28    5883
69.3     5833
69.32    5783
69.34    5818
69.36    5856
69.38    5784
69.4     5818
69.42    5871
69.44    5847
69.46    5903
69.48    5884
69.5     5877
69.52    5870
69.54    5892
69.56    5920
69.58    5963
69.6     5994
69.62    5895
69.64    5806
69.66    5912
69.68    5910
69.7     5905
69.72    5961
69.74    5952
69.76    5856
69.78    5964
69.8     6010
69.82    5877
69.84    5840
69.86    5926
69.88    6012
69.9     6024
69.92    5967
69.94    5919
69.96    5900
69.98    5955
70.0     5914
70.02    5831
70.04    5858
70.06    5977
70.08    5962
70.1     6000
70.12    5931
70.14    5854
70.16    5837
70.18    5878
70.2     5862
70.22    5860
70.24    5937
70.26    5951
70.28    5868
70.3     5784
70.32    5816
70.34    5842
70.36    5806
70.38    5772
70.4     5875
70.42    5833
70.44    5813
70.46    5825
70.48    5844
70.5     5716
70.52    5730
70.54    5814
70.56    5769
70.58    5743
70.6     5706
70.62    5707
70.64    5675
70.66    5735
70.68    5711
70.7     5659
70.72    5618
70.74    5619
70.76    5662
70.78    5566
70.8     5526
70.82    5469
70.84    5566
70.86    5554
70.88    5565
70.9     5645
70.92    5597
70.94    5532
70.96    5549
70.98    5514
71.0     5495
71.02    5522
71.04    5441
71.06    5418
71.08    5422
71.1     5403
71.12    5341
71.14    5309
71.16    5344
71.18    5260
71.2     5297
71.22    5232
71.24    5301
71.26    5226
71.28    5289
71.3     5196
71.32    5207
71.34    5267
71.36    5126
71.38    5168
71.4     5168
71.42    5146
71.44    5047
71.46    5050
71.48    5106
71.5     5004
71.52    4977
71.54    5001
71.56    5009
71.58    4936
71.6     4907
71.62    4941
71.64    4959
71.66    4861
71.68    4797
71.7     4775
71.72    4817
71.74    4732
71.76    4710
71.78    4726
71.8     4689
71.82    4672
71.84    4627
71.86    4636
71.88    4585
71.9     4597
71.92    4546
71.94    4488
71.96    4493
71.98    4450
72.0     4461
72.02    4488
72.04    4429
72.06    4434
72.08    4516
72.1     4507
72.12    4444
72.14    4328
72.16    4296
72.18    4300
72.2     4269
72.22    4344
72.24    4232
72.26    4187
72.28    4231
72.3     4166
72.32    4139
72.34    4131
72.36    4217
72.38    4176
72.4     4095
72.42    4065
72.44    3995
72.46    3999
72.48    4008
72.5     4033
72.52    3979
72.54    3929
72.56    3937
72.58    3927
72.6     3858
72.62    3824
72.64    3879
72.66    3847
72.68    3804
72.7     3737
72.72    3689
72.74    3645
72.76    3757
72.78    3673
72.8     3687
72.82    3677
72.84    3616
72.86    3618
72.88    3600
72.9     3634
72.92    3580
72.94    3576
72.96    3500
72.98    3485
73.0     3501
73.02    3520
73.04    3519
73.06    3490
73.08    3438
73.1     3398
73.12    3441
73.14    3400
73.16    3418
73.18    3415
73.2     3422
73.22    3376
73.24    3293
73.26    3238
73.28    3285
73.3     3263
73.32    3260
73.34    3259
73.36    3213
73.38    3162
73.4     3196
73.42    3177
73.44    3135
73.46    3239
73.48    3168
73.5     3132
73.52    3101
73.54    3185
73.56    3093
73.58    3008
73.6     3042
73.62    3069
73.64    3052
73.66    3074
73.68    3032
73.7     3036
73.72    3052
73.74    2996
73.76    3000
73.78    2969
73.8     2957
73.82    2973
73.84    2934
73.86    2975
73.88    2935
73.9     2909
73.92    2890
73.94    2901
73.96    2912
73.98    2821
74.0     2832
74.02    2818
74.04    2846
74.06    2872
74.08    2818
74.1     2858
74.12    2823
74.14    2853
74.16    2829
74.18    2770
74.2     2795
74.22    2788
74.24    2786
74.26    2804
74.28    2741
74.3     2713
74.32    2736
74.34    2719
74.36    2731
74.38    2800
74.4     2774
74.42    2770
74.44    2747
74.46    2706
74.48    2681
74.5     2619
74.52    2668
74.54    2697
74.56    2656
74.58    2586
74.6     2659
74.62    2675
74.64    2699
74.66    2673
74.68    2639
74.7     2673
74.72    2647
74.74    2663
74.76    2664
74.78    2622
74.8     2647
74.82    2635
74.84    2594
74.86    2611
74.88    2562
74.9     2572
74.92    2590
74.94    2537
74.96    2621
74.98    2611
75.0     2575
75.02    2552
75.04    2623
75.06    2584
75.08    2614
75.1     2626
75.12    2563
75.14    2597
75.16    2606
75.18    2603
75.2     2570
75.22    2551
75.24    2543
75.26    2566
75.28    2596
75.3     2531
75.32    2536
75.34    2602
75.36    2592
75.38    2532
75.4     2569
75.42    2566
75.44    2594
75.46    2622
75.48    2602
75.5     2580
75.52    2550
75.54    2552
75.56    2542
75.58    2614
75.6     2595
75.62    2561
75.64    2526
75.66    2577
75.68    2603
75.7     2595
75.72    2558
75.74    2579
75.76    2582
75.78    2594
75.8     2580
75.82    2593
75.84    2582
75.86    2603
75.88    2598
75.9     2607
75.92    2567
75.94    2629
75.96    2590
75.98    2571
76.0     2574
76.02    2553
76.04    2617
76.06    2607
76.08    2638
76.1     2587
76.12    2608
76.14    2623
76.16    2567
76.18    2599
76.2     2598
76.22    2579
76.24    2595
76.26    2569
76.28    2604
76.3     2575
76.32    2653
76.34    2630
76.36    2661
76.38    2657
76.4     2656
76.42    2666
76.44    2644
76.46    2671
76.48    2679
76.5     2634
76.52    2682
76.54    2629
76.56    2664
76.58    2672
76.6     2685
76.62    2662
76.64    2722
76.66    2642
76.68    2663
76.7     2717
76.72    2693
76.74    2696
76.76    2717
76.78    2695
76.8     2693
76.82    2676
76.84    2692
76.86    2699
76.88    2679
76.9     2742
76.92    2758
76.94    2742
76.96    2684
76.98    2686
77.0     2665
77.02    2702
77.04    2686
77.06    2782
77.08    2752
77.1     2767
77.12    2791
77.14    2730
77.16    2744
77.18    2755
77.2     2752
77.22    2719
77.24    2778
77.26    2768
77.28    2737
77.3     2746
77.32    2802
77.34    2832
77.36    2850
77.38    2828
77.4     2799
77.42    2775
77.44    2769
77.46    2818
77.48    2833
77.5     2825
77.52    2814
77.54    2812
77.56    2855
77.58    2822
77.6     2815
77.62    2856
77.64    2852
77.66    2879
77.68    2852
77.7     2783
77.72    2802
77.74    2836
77.76    2867
77.78    2893
77.8     2901
77.82    2898
77.84    2828
77.86    2832
77.88    2887
77.9     2894
77.92    2879
77.94    2838
77.96    2852
77.98    2841
78.0     2879
78.02    2884
78.04    2853
78.06    2860
78.08    2814
78.1     2842
78.12    2923
78.14    2888
78.16    2886
78.18    2893
78.2     2883
78.22    2875
78.24    2891
78.26    2891
78.28    2905
78.3     2928
78.32    2889
78.34    2943
78.36    2901
78.38    2890
78.4     2951
78.42    2863
78.44    2880
78.46    2908
78.48    2876
78.5     2856
78.52    2868
78.54    2873
78.56    2881
78.58    2913
78.6     2878
78.62    2888
78.64    2888
78.66    2892
78.68    2841
78.7     2821
78.72    2836
78.74    2850
78.76    2888
78.78    2853
78.8     2857
78.82    2862
78.84    2885
78.86    2859
78.88    2824
78.9     2813
78.92    2891
78.94    2873
78.96    2852
78.98    2859
79.0     2782
79.02    2796
79.04    2761
79.06    2781
79.08    2815
79.1     2796
79.12    2788
79.14    2837
79.16    2846
79.18    2787
79.2     2806
79.22    2747
79.24    2783
79.26    2798
79.28    2766
79.3     2749
79.32    2792
79.34    2783
79.36    2789
79.38    2784
79.4     2762
79.42    2805
79.44    2756
79.46    2751
79.48    2717
79.5     2747
79.52    2769
79.54    2787
79.56    2677
79.58    2711
79.6     2706
79.62    2699
79.64    2657
79.66    2680
79.68    2635
79.7     2667
79.72    2649
79.74    2638
79.76    2636
79.78    2581
79.8     2604
79.82    2652
79.84    2628
79.86    2653
79.88    2624
79.9     2588
79.92    2615
79.94    2631
79.96    2618
79.98    2578
80.0     2550
80.02    2528
80.04    2551
80.06    2570
80.08    2601
80.1     2556
80.12    2522
80.14    2545
80.16    2529
80.18    2536
80.2     2525
80.22    2513
80.24    2476
80.26    2479
80.28    2527
80.3     2521
80.32    2478
80.34    2461
80.36    2479
80.38    2463
80.4     2464
80.42    2451
80.44    2452
80.46    2463
80.48    2487
80.5     2474
80.52    2458
80.54    2437
80.56    2395
80.58    2403
80.6     2358
80.62    2381
80.64    2410
80.66    2385
80.68    2408
80.7     2377
80.72    2352
80.74    2393
80.76    2353
80.78    2322
80.8     2322
80.82    2326
80.84    2351
80.86    2358
80.88    2303
80.9     2344
80.92    2306
80.94    2327
80.96    2326
80.98    2298
81.0     2331
81.02    2294
81.04    2298
81.06    2277
81.08    2237
81.1     2251
81.12    2247
81.14    2220
81.16    2236
81.18    2260
81.2     2262
81.22    2213
81.24    2259
81.26    2222
81.28    2208
81.3     2260
81.32    2252
81.34    2203
81.36    2195
81.38    2248
81.4     2243
81.42    2207
81.44    2181
81.46    2219
81.48    2220
81.5     2248
81.52    2193
81.54    2127
81.56    2182
81.58    2205
81.6     2166
81.62    2167
81.64    2165
81.66    2215
81.68    2209
81.7     2169
81.72    2151
81.74    2155
81.76    2200
81.78    2146
81.8     2206
81.82    2188
81.84    2135
81.86    2134
81.88    2180
81.9     2166
81.92    2173
81.93    2105
81.96    2143
81.98    2144
82.0     2186
82.02    2136
82.04    2119
82.06    2101
82.08    2098
82.1     2145
82.12    2166
82.14    2146
82.16    2152
82.18    2161
82.2     2131
82.22    2131
82.24    2105
82.26    2156
82.28    2179
82.3     2171
82.32    2111
82.34    2111
82.36    2127
82.38    2133
82.4     2157
82.42    2110
82.43    2092
82.46    2188
82.48    2191
82.5     2144
82.52    2176
82.54    2191
82.56    2179
82.58    2117
82.6     2105
82.62    2178
82.64    2165
82.66    2234
82.68    2161
82.7     2159
82.72    2138
82.74    2136
82.76    2136
82.78    2191
82.8     2173
82.82    2144
82.84    2170
82.86    2112
82.88    2156
82.9     2164
82.92    2159
82.93    2194
82.96    2188
82.98    2162
83.0     2176
83.02    2154
83.04    2162
83.06    2175
83.08    2185
83.1     2201
83.12    2186
83.14    2188
83.16    2198
83.18    2203
83.2     2207
83.22    2225
83.24    2203
83.26    2191
83.28    2211
83.3     2205
83.32    2205
83.34    2240
83.36    2170
83.38    2179
83.4     2231
83.42    2233
83.43    2214
83.46    2194
83.48    2219
83.5     2150
83.52    2160
83.54    2184
83.56    2194
83.58    2160
83.6     2233
83.62    2271
83.64    2240
83.66    2260
83.68    2235
83.7     2222
83.72    2238
83.74    2265
83.76    2157
83.78    2216
83.8     2216
83.82    2198
83.84    2212
83.86    2208
83.88    2163
83.9     2179
83.92    2185
83.93    2247
83.96    2235
83.98    2210
84.0     2236
84.02    2235
84.04    2226
84.06    2251
84.08    2270
84.1     2206
84.12    2216
84.14    2247
84.16    2199
84.18    2169
84.2     2183
84.22    2205
84.24    2235
84.26    2257
84.28    2246
84.3     2216
84.32    2242
84.34    2212
84.36    2148
84.38    2160
84.4     2194
84.42    2231
84.43    2206
84.46    2214
84.48    2158
84.5     2148
84.52    2200
84.54    2201
84.56    2183
84.58    2186
84.6     2166
84.62    2223
84.64    2164
84.66    2161
84.68    2137
84.7     2158
84.72    2167
84.74    2179
84.76    2204
84.78    2164
84.8     2154
84.82    2176
84.84    2186
84.86    2197
84.88    2203
84.9     2121
84.92    2090
84.93    2112
84.96    2147
84.98    2123
85.0     2169
85.02    2184
85.04    2184
85.06    2130
85.08    2106
85.1     2166
85.12    2180
85.14    2176
85.16    2143
85.18    2135
85.2     2137
85.22    2131
85.24    2154
85.26    2116
85.28    2145
85.3     2091
85.32    2061
85.34    2112
85.36    2100
85.38    2151
85.4     2123
85.42    2115
85.43    2078
85.46    2096
85.48    2099
85.5     2082
85.52    2079
85.54    2067
85.56    2031
85.58    2100
85.6     2118
85.62    2084
85.64    2060
85.66    2078
85.68    2084
85.7     2030
85.72    2046
85.74    2029
85.76    2015
85.78    2021
85.8     2028
85.82    2040
85.84    2060
85.86    2049
85.88    2057
85.9     2000
85.92    2026
85.93    2012
85.96    2050
85.98    1989
86.0     1965
86.02    1947
86.04    2017
86.06    2003
86.08    1970
86.1     1990
86.12    2015
86.14    2003
86.16    2014
86.18    2013
86.2     1978
86.22    2007
86.24    1988
86.26    1947
86.28    1988
86.3     1930
86.32    1957
86.34    1938
86.36    1984
86.38    1964
86.4     1961
86.42    1977
86.43    1945
86.46    1946
86.48    1919
86.5     1915
86.52    1923
86.54    1983
86.56    1935
86.58    1978
86.6     1936
86.62    1934
86.64    1917
86.66    1911
86.68    1937
86.7     1934
86.72    1885
86.74    1896
86.76    1943
86.78    1913
86.8     1887
86.82    1948
86.84    1900
86.86    1888
86.88    1878
86.9     1926
86.92    1936
86.93    1907
86.96    1901
86.98    1829
87.0     1879
87.02    1920
87.04    1908
87.06    1948
87.08    1858
87.1     1868
87.12    1884
87.14    1875
87.16    1830
87.18    1880
87.2     1873
87.22    1864
87.24    1889
87.26    1887
87.28    1883
87.3     1863
87.32    1895
87.34    1901
87.36    1829
87.38    1843
87.4     1860
87.42    1833
87.43    1842
87.46    1860
87.48    1816
87.5     1856
87.52    1767
87.54    1840
87.56    1853
87.58    1859
87.6     1834
87.62    1802
87.64    1803
87.66    1828
87.68    1825
87.7     1819
87.72    1811
87.74    1812
87.76    1862
87.78    1866
87.8     1804
87.82    1821
87.84    1795
87.86    1788
87.88    1781
87.9     1778
87.92    1793
87.93    1811
87.96    1793
87.98    1798
88.0     1776
88.02    1833
88.04    1758
88.06    1809
88.08    1832
88.1     1790
88.12    1772
88.14    1813
88.16    1775
88.18    1782
88.2     1783
88.22    1816
88.24    1724
88.26    1800
88.28    1735
88.3     1760
88.32    1807
88.34    1764
88.36    1759
88.38    1750
88.4     1751
88.42    1815
88.43    1771
88.46    1810
88.48    1772
88.5     1754
88.52    1725
88.54    1783
88.56    1828
88.58    1782
88.6     1801
88.62    1759
88.64    1825
88.66    1779
88.68    1773
88.7     1773
88.72    1826
88.74    1804
88.76    1800
88.78    1796
88.8     1783
88.82    1738
88.84    1750
88.86    1761
88.88    1780
88.9     1748
88.92    1744
88.93    1789
88.96    1767
88.98    1782
89.0     1743
89.02    1748
89.04    1788
89.06    1745
89.08    1775
89.1     1781
89.12    1848
89.14    1736
89.16    1769
89.18    1767
89.2     1711
89.22    1792
89.24    1807
89.26    1787
89.28    1770
89.3     1778
89.32    1753
89.34    1721
89.36    1746
89.38    1766
89.4     1753
89.42    1744
89.43    1781
89.46    1797
89.48    1775
89.5     1728
89.52    1749
89.54    1751
89.56    1761
89.58    1725
89.6     1744
89.62    1729
89.64    1775
89.66    1745
89.68    1780
89.7     1799
89.72    1752
89.74    1746
89.76    1769
89.78    1758
89.8     1816
89.82    1771
89.84    1758
89.86    1770
89.88    1739
89.9     1740
89.92    1750
89.93    1791
89.96    1765
89.98    1731
90.0     1791
90.02    1748
90.04    1774
90.06    1791
90.08    1767
90.1     1806
90.12    1772
90.14    1784
90.16    1766
90.18    1777
90.2     1797
90.22    1759
90.24    1792
90.26    1756
90.28    1739
90.3     1806
90.32    1813
90.34    1787
90.36    1791
90.38    1770
90.4     1818
90.42    1792
90.43    1804
90.46    1804
90.48    1785
90.5     1775
90.52    1750
90.54    1756
90.56    1797
90.58    1814
90.6     1799
90.62    1810
90.64    1759
90.66    1823
90.68    1795
90.7     1811
90.72    1773
90.74    1781
90.76    1763
90.78    1806
90.8     1789
90.82    1815
90.84    1751
90.86    1781
90.88    1800
90.9     1792
90.92    1826
90.93    1789
90.96    1815
90.98    1796
91.0     1849
91.02    1817
91.04    1807
91.06    1842
91.08    1811
91.1     1823
91.12    1838
91.14    1871
91.16    1856
91.18    1839
91.2     1828
91.22    1799
91.24    1805
91.26    1837
91.28    1854
91.3     1877
91.32    1868
91.34    1851
91.36    1888
91.38    1821
91.4     1828
91.42    1873
91.43    1867
91.46    1876
91.48    1884
91.5     1878
91.52    1878
91.54    1907
91.56    1842
91.58    1851
91.6     1900
91.62    1868
91.64    1924
91.66    1887
91.68    1895
91.7     1885
91.72    1901
91.74    1894
91.76    1888
91.78    1928
91.8     1915
91.82    1896
91.84    1872
91.86    1892
91.88    1894
91.9     1875
91.92    1911
91.93    1899
91.96    1902
91.98    1865
92.0     1925
92.02    1928
92.04    1929
92.06    1951
92.08    1955
92.1     1982
92.12    1946
92.14    1928
92.16    1993
92.18    1954
92.2     1958
92.22    1949
92.24    1937
92.26    1917
92.28    1956
92.3     1964
92.32    1967
92.34    1989
92.36    1982
92.38    1981
92.4     1995
92.42    1997
92.43    2019
92.46    2014
92.48    1990
92.5     1986
92.52    1971
92.54    1968
92.56    2006
92.58    2015
92.6     2007
92.62    2036
92.64    1989
92.66    2003
92.68    1997
92.7     2041
92.72    2046
92.74    2008
92.76    2002
92.78    2069
92.8     2027
92.82    2078
92.84    2060
92.86    2043
92.88    2054
92.9     2038
92.92    2043
92.93    2072
92.96    2070
92.98    2045
93.0     2039
93.02    2060
93.04    2084
93.06    2076
93.08    2053
93.1     2060
93.12    2006
93.14    2094
93.16    2097
93.18    2075
93.2     2049
93.22    2073
93.24    2070
93.26    2050
93.28    2052
93.3     2069
93.32    2048
93.34    2019
93.36    2081
93.38    2087
93.4     2075
93.42    2087
93.43    2083
93.46    2105
93.48    2088
93.5     2124
93.52    2099
93.54    2105
93.56    2104
93.58    2083
93.6     2104
93.62    2092
93.64    2070
93.66    2127
93.68    2097
93.7     2096
93.72    2079
93.74    2102
93.76    2051
93.78    2070
93.8     2092
93.82    2100
93.84    2079
93.86    2148
93.88    2105
93.9     2039
93.92    2063
93.93    2076
93.96    2071
93.98    2069
94.0     2091
94.02    2087
94.04    2125
94.06    2132
94.08    2088
94.1     2134
94.12    2076
94.14    2128
94.16    2145
94.18    2124
94.2     2135
94.22    2086
94.24    2110
94.26    2048
94.28    2122
94.3     2091
94.32    2108
94.34    2148
94.36    2139
94.38    2093
94.4     2088
94.42    2071
94.43    2094
94.46    2109
94.48    2083
94.5     2114
94.52    2121
94.54    2054
94.56    2047
94.58    2095
94.6     2052
94.62    2045
94.64    2085
94.66    2135
94.68    2118
94.7     2135
94.72    2098
94.74    2036
94.76    2092
94.78    2101
94.8     2136
94.82    2107
94.84    2086
94.86    2093
94.88    2094
94.9     2081
94.92    2092
94.93    2051
94.96    2107
94.98    2081
95.0     2069
95.02    2034
95.04    2028
95.06    2056
95.08    2099
95.1     2052
95.12    2044
95.14    2042
95.16    2042
95.18    2048
95.2     2052
95.22    2015
95.24    2088
95.25    2061
95.28    2037
95.3     2085
95.32    2087
95.34    2018
95.36    2004
95.38    2020
95.4     2013
95.42    2039
95.43    2028
95.46    2034
95.48    2084
95.5     2015
95.52    2013
95.54    2019
95.56    2029
95.58    2010
95.6     2044
95.62    2041
95.64    2034
95.66    2019
95.68    1973
95.7     2008
95.72    2008
95.74    2028
95.75    1975
95.78    2006
95.8     1981
95.82    2054
95.84    2009
95.86    1954
95.88    1976
95.9     1975
95.92    1965
95.93    1945
95.96    1959
95.98    2009
96.0     1979
96.02    1964
96.04    1958
96.06    1985
96.08    2029
96.1     2005
96.12    1943
96.14    1949
96.16    2010
96.18    1974
96.2     1944
96.22    1912
96.24    1937
96.25    1999
96.28    1941
96.3     1964
96.32    1946
96.34    1964
96.36    1943
96.38    1971
96.4     1957
96.42    1928
96.43    1904
96.46    1954
96.48    1979
96.5     1988
96.52    1951
96.54    1939
96.56    1974
96.58    1965
96.6     1985
96.62    1986
96.64    1976
96.66    1954
96.68    1920
96.7     1954
96.72    1995
96.74    1998
96.75    2017
96.78    2000
96.8     2002
96.82    1944
96.84    1932
96.86    1993
96.88    1996
96.9     1921
96.92    1911
96.93    1942
96.96    1924
96.98    1958
97.0     1927
97.02    1933
97.04    1923
97.06    1959
97.08    1984
97.1     1947
97.12    1965
97.14    1950
97.16    1957
97.18    1982
97.2     1961
97.22    2018
97.24    1935
97.25    1933
97.28    1985
97.3     1938
97.32    1941
97.34    1942
97.36    1950
97.38    1989
97.4     1960
97.42    1986
97.43    1994
97.46    1921
97.48    2004
97.5     1943
97.52    2005
97.54    2062
97.56    2038
97.58    1973
97.6     2027
97.62    1995
97.64    1988
97.66    2043
97.68    2006
97.7     1990
97.72    1979
97.74    2021
97.75    1990
97.78    1997
97.8     2045
97.82    2001
97.84    2025
97.86    2036
97.88    2028
97.9     1961
97.92    2028
97.93    2039
97.96    2030
97.98    1988
98.0     2001
98.02    2002
98.04    2042
98.06    2059
98.08    2074
98.1     2033
98.12    2070
98.14    2053
98.16    2020
98.18    2021
98.2     2041
98.22    2062
98.24    2036
98.25    2073
98.28    2056
98.3     2058
98.32    2053
98.34    2046
98.36    2051
98.38    2092
98.4     2120
98.42    2049
98.43    2052
98.46    2103
98.48    2128
98.5     2091
98.52    2093
98.54    2093
98.56    2089
98.58    2081
98.6     2063
98.62    2100
98.64    2097
98.66    2136
98.68    2077
98.7     2092
98.72    2081
98.74    2082
98.75    2156
98.78    2193
98.8     2142
98.82    2118
98.84    2130
98.86    2137
98.88    2126
98.9     2172
98.92    2131
98.93    2171
98.96    2197
98.98    2172
99.0     2169
99.02    2145
99.04    2185
99.06    2161
99.08    2174
99.1     2183
99.12    2165
99.14    2182
99.16    2187
99.18    2180
99.2     2194
99.22    2230
99.24    2216
99.25    2218
99.28    2195
99.3     2224
99.32    2201
99.34    2255
99.36    2231
99.38    2201
99.4     2244
99.42    2238
99.43    2228
99.46    2244
99.48    2176
99.5     2236
99.52    2237
99.54    2223
99.56    2251
99.58    2210
99.6     2241
99.62    2244
99.64    2196
99.66    2223
99.68    2221
99.7     2253
99.72    2220
99.74    2266
99.75    2302
99.78    2278
99.8     2247
99.82    2297
99.84    2254
99.86    2305
99.88    2359
99.9     2281
99.92    2254
99.93    2263
99.96    2278
99.98    2296
100.0    2262
100.02   2297
100.04   2201
100.06   2300
100.08   2277
100.1    2273
100.12   2286
100.14   2281
100.16   2294
100.18   2326
100.2    2261
100.22   2279
100.24   2287
100.26   2277
100.28   2289
100.3    2242
100.32   2280
100.34   2280
100.36   2269
100.38   2277
100.4    2246
100.42   2303
100.44   2270
100.46   2276
100.48   2294
100.5    2305
100.52   2319
100.54   2316
100.56   2268
100.58   2324
100.6    2255
100.62   2293
100.64   2305
100.66   2330
100.68   2329
100.7    2267
100.72   2278
100.74   2293
100.76   2250
100.78   2313
100.8    2298
100.82   2290
100.84   2313
100.86   2304
100.88   2318
100.9    2345
100.92   2314
100.94   2314
100.96   2296
100.98   2284
101.0    2331
101.02   2291
101.04   2308
101.06   2315
101.08   2324
101.1    2286
101.12   2257
101.14   2253
101.16   2312
101.18   2287
101.2    2236
101.22   2290
101.24   2256
101.26   2268
101.28   2282
101.3    2249
101.32   2297
101.34   2268
101.36   2238
101.38   2263
101.4    2251
101.42   2257
101.44   2243
101.46   2259
101.48   2283
101.5    2297
101.52   2237
101.54   2268
101.56   2264
101.58   2206
101.6    2235
101.62   2246
101.64   2238
101.66   2217
101.68   2204
101.7    2284
101.72   2213
101.74   2276
101.76   2218
101.78   2212
101.8    2219
101.82   2192
101.84   2242
101.86   2205
101.88   2202
101.9    2180
101.92   2237
101.94   2190
101.96   2165
101.98   2191
102.0    2203
102.02   2214
102.04   2205
102.06   2183
102.08   2149
102.1    2161
102.12   2141
102.14   2144
102.16   2104
102.18   2158
102.2    2118
102.22   2157
102.24   2143
102.26   2070
102.28   2094
102.3    2141
102.32   2127
102.34   2141
102.36   2187
102.38   2141
102.4    2125
102.42   2173
102.44   2100
102.46   2093
102.48   2152
102.5    2129
102.52   2102
102.54   2113
102.56   2071
102.58   2024
102.6    2049
102.62   2097
102.64   2071
102.66   2077
102.68   2050
102.7    2062
102.72   2077
102.74   2040
102.76   2043
102.78   2037
102.8    2004
102.82   2066
102.84   2091
102.86   2050
102.88   2026
102.9    2034
102.92   2030
102.94   1997
102.96   2033
102.98   2004
103.0    2003
103.02   2009
103.04   1975
103.06   2002
103.08   1949
103.1    1944
103.12   1976
103.14   1989
103.16   1975
103.18   1987
103.2    1977
103.22   2000
103.24   1950
103.26   1971
103.28   1951
103.3    1973
103.32   1914
103.34   1935
103.36   1953
103.38   1977
103.4    1967
103.42   1947
103.44   1937
103.46   1932
103.48   1925
103.5    1927
103.52   1952
103.54   1960
103.56   1917
103.58   1907
103.6    1873
103.62   1914
103.64   1917
103.66   1893
103.68   1861
103.7    1873
103.72   1872
103.74   1852
103.76   1875
103.78   1904
103.8    1892
103.82   1883
103.84   1872
103.86   1836
103.88   1867
103.9    1877
103.92   1828
103.94   1859
103.96   1828
103.98   1845
104.0    1832
104.02   1820
104.04   1876
104.06   1833
104.08   1859
104.1    1854
104.12   1868
104.14   1856
104.16   1797
104.18   1759
104.2    1791
104.22   1793
104.24   1788
104.26   1790
104.28   1821
104.3    1781
104.32   1787
104.34   1786
104.36   1753
104.38   1811
104.4    1843
104.42   1798
104.44   1784
104.46   1811
104.48   1776
104.5    1761
104.52   1817
104.54   1788
104.56   1803
104.58   1768
104.6    1731
104.62   1750
104.64   1751
104.66   1780
104.68   1737
104.7    1705
104.72   1789
104.74   1772
104.76   1761
104.78   1750
104.8    1748
104.82   1755
104.84   1739
104.86   1734
104.88   1705
104.9    1732
104.92   1730
104.94   1731
104.96   1743
104.98   1743
105.0    1743
105.02   1754
105.04   1750
105.06   1726
105.08   1732
105.1    1733
105.12   1732
105.14   1699
105.16   1674
105.18   1693
105.2    1713
105.22   1715
105.24   1696
105.26   1668
105.28   1683
105.3    1697
105.32   1697
105.34   1660
105.36   1681
105.38   1731
105.4    1707
105.42   1693
105.44   1717
105.46   1696
105.48   1691
105.5    1698
105.52   1680
105.54   1646
105.56   1629
105.58   1692
105.6    1664
105.62   1646
105.64   1682
105.66   1671
105.68   1647
105.7    1712
105.72   1684
105.74   1665
105.76   1681
105.78   1674
105.8    1651
105.82   1663
105.84   1652
105.86   1684
105.88   1681
105.9    1641
105.92   1682
105.94   1668
105.96   1653
105.98   1660
106.0    1668
106.02   1678
106.04   1659
106.06   1640
106.08   1664
106.1    1636
106.12   1652
106.14   1635
106.16   1620
106.18   1633
106.2    1660
106.22   1657
106.24   1642
106.26   1664
106.28   1654
106.3    1624
106.32   1684
106.34   1632
106.36   1631
106.38   1645
106.4    1662
106.42   1643
106.44   1658
106.46   1690
106.48   1604
106.5    1647
106.52   1658
106.54   1659
106.56   1632
106.58   1632
106.6    1669
106.62   1620
106.64   1634
106.66   1656
106.68   1678
106.7    1623
106.72   1654
106.74   1649
106.76   1665
106.78   1702
106.8    1659
106.82   1701
106.84   1650
106.86   1663
106.88   1660
106.9    1668
106.92   1702
106.94   1686
106.96   1656
106.98   1679
107.0    1675
107.02   1669
107.04   1660
107.06   1648
107.08   1669
107.1    1649
107.12   1638
107.14   1618
107.16   1659
107.18   1673
107.2    1682
107.22   1690
107.24   1683
107.26   1648
107.28   1685
107.3    1640
107.32   1698
107.34   1676
107.36   1645
107.38   1642
107.4    1656
107.42   1660
107.44   1649
107.46   1665
107.48   1661
107.5    1668
107.52   1668
107.54   1656
107.56   1660
107.58   1684
107.6    1671
107.62   1667
107.64   1708
107.66   1661
107.68   1697
107.7    1665
107.72   1692
107.74   1654
107.76   1713
107.78   1654
107.8    1671
107.82   1680
107.84   1668
107.86   1693
107.88   1703
107.9    1677
107.92   1698
107.94   1699
107.96   1714
107.98   1680
108.0    1665
108.02   1684
108.04   1690
108.06   1687
108.08   1714
108.1    1761
108.12   1712
108.14   1691
108.16   1704
108.18   1736
108.2    1695
108.22   1706
108.24   1736
108.26   1765
108.28   1706
108.3    1754
108.32   1730
108.34   1745
108.36   1746
108.38   1693
108.4    1677
108.42   1685
108.44   1703
108.46   1715
108.48   1717
108.5    1746
108.52   1747
108.54   1710
108.56   1735
108.58   1698
108.6    1738
108.62   1732
108.64   1761
108.66   1702
108.68   1759
108.7    1740
108.72   1731
108.74   1722
108.76   1739
108.78   1778
108.8    1783
108.82   1769
108.84   1697
108.86   1711
108.88   1752
108.9    1768
108.92   1758
108.94   1734
108.96   1771
108.98   1723
109.0    1713
109.02   1741
109.04   1738
109.06   1761
109.08   1731
109.1    1727
109.12   1729
109.14   1726
109.16   1748
109.18   1751
109.2    1757
109.22   1751
109.24   1733
109.26   1748
109.28   1780
109.3    1781
109.32   1793
109.34   1770
109.36   1774
109.38   1746
109.4    1779
109.42   1754
109.44   1793
109.46   1805
109.48   1766
109.5    1756
109.52   1754
109.54   1742
109.56   1755
109.58   1747
109.6    1753
109.62   1713
109.64   1747
109.66   1823
109.68   1774
109.7    1769
109.72   1786
109.74   1759
109.76   1777
109.78   1786
109.8    1775
109.82   1765
109.84   1795
109.86   1790
109.88   1760
109.9    1727
109.92   1767
109.94   1810
109.96   1746
109.98   1794
110.0    1769
110.02   1781
110.04   1796
110.06   1830
110.08   1785
110.1    1789
110.12   1791
110.14   1766
110.16   1787
110.18   1795
110.2    1723
110.22   1794
110.24   1752
110.26   1752
110.28   1795
110.3    1834
110.32   1731
110.34   1764
110.36   1721
110.38   1764
110.4    1785
110.42   1756
110.44   1762
110.46   1739
110.48   1756
110.5    1759
110.52   1761
110.54   1773
110.56   1707
110.58   1771
110.6    1773
110.62   1800
110.64   1825
110.66   1743
110.68   1772
110.7    1802
110.72   1794
110.74   1767
110.76   1782
110.78   1806
110.8    1784
110.82   1812
110.84   1801
110.86   1757
110.88   1752
110.9    1778
110.92   1797
110.94   1799
110.96   1818
110.98   1806
111.0    1798
111.02   1791
111.04   1789
111.06   1750
111.08   1722
111.1    1774
111.12   1781
111.14   1803
111.16   1738
111.18   1759
111.2    1762
111.22   1787
111.24   1780
111.26   1775
111.28   1791
111.3    1788
111.32   1751
111.34   1761
111.36   1755
111.38   1776
111.4    1798
111.42   1756
111.44   1773
111.46   1819
111.48   1829
111.5    1771
111.52   1799
111.54   1778
111.56   1766
111.58   1789
111.6    1828
111.62   1802
111.64   1734
111.66   1735
111.68   1753
111.7    1749
111.72   1747
111.74   1755
111.76   1748
111.78   1784
111.8    1724
111.82   1777
111.84   1756
111.86   1761
111.88   1726
111.9    1732
111.92   1760
111.94   1771
111.96   1803
111.98   1744
112.0    1758
112.02   1770
112.04   1803
112.06   1760
112.08   1743
112.1    1725
112.12   1724
112.14   1720
112.16   1755
112.18   1773
112.2    1713
112.22   1752
112.24   1772
112.26   1754
112.28   1782
112.3    1766
112.32   1797
112.34   1736
112.36   1738
112.38   1738
112.4    1735
112.42   1779
112.44   1739
112.46   1763
112.48   1741
112.5    1750
112.52   1753
112.54   1729
112.56   1753
112.58   1723
112.6    1776
112.62   1746
112.64   1755
112.66   1775
112.68   1763
112.7    1781
112.72   1771
112.74   1771
112.76   1777
112.78   1771
112.8    1764
112.82   1745
112.84   1744
112.86   1773
112.88   1771
112.9    1755
112.92   1732
112.94   1731
112.96   1743
112.98   1756
113.0    1743
113.02   1731
113.04   1749
113.06   1747
113.08   1683
113.1    1744
113.12   1758
113.14   1706
113.16   1764
113.18   1728
113.2    1734
113.22   1728
113.24   1736
113.26   1764
113.28   1771
113.3    1756
113.32   1736
113.34   1712
113.36   1770
113.38   1728
113.4    1785
113.42   1761
113.44   1774
113.46   1758
113.48   1764
113.5    1761
113.52   1771
113.54   1749
113.56   1758
113.58   1769
113.6    1742
113.62   1768
113.64   1734
113.66   1702
113.68   1767
113.7    1780
113.72   1761
113.74   1764
113.76   1801
113.78   1771
113.8    1826
113.82   1746
113.84   1766
113.86   1783
113.88   1801
113.9    1764
113.92   1760
113.94   1764
113.96   1747
113.98   1773
114.0    1751
114.02   1768
114.04   1744
114.06   1777
114.08   1775
114.1    1803
114.12   1785
114.14   1802
114.16   1773
114.18   1804
114.2    1791
114.22   1741
114.24   1779
114.26   1803
114.28   1843
114.3    1779
114.32   1751
114.34   1770
114.36   1776
114.38   1750
114.4    1774
114.42   1816
114.44   1822
114.46   1773
114.48   1877
114.5    1801
114.52   1775
114.54   1788
114.56   1796
114.58   1778
114.6    1797
114.62   1789
114.64   1765
114.66   1783
114.68   1799
114.7    1776
114.72   1785
114.74   1830
114.76   1834
114.78   1812
114.8    1816
114.82   1865
114.84   1821
114.86   1798
114.88   1810
114.9    1813
114.92   1790
114.94   1829
114.96   1849
114.98   1817
115.0    1797
115.02   1852
115.04   1858
115.06   1840
115.08   1795
115.1    1814
115.12   1803
115.14   1798
115.16   1838
115.18   1853
115.2    1823
115.22   1847
115.24   1844
115.26   1778
115.28   1764
115.3    1810
115.32   1859
115.34   1855
115.36   1823
115.38   1814
115.4    1824
115.42   1827
115.44   1836
115.46   1865
115.48   1819
115.5    1812
115.52   1820
115.54   1863
115.56   1854
115.58   1836
115.6    1824
115.62   1837
115.64   1826
115.66   1874
115.68   1867
115.7    1871
115.72   1863
115.74   1903
115.76   1881
115.78   1888
115.8    1862
115.82   1852
115.84   1838
115.86   1865
115.88   1858
115.9    1895
115.92   1864
115.94   1871
115.96   1897
115.98   1890
116.0    1878
116.02   1865
116.04   1818
116.06   1862
116.08   1868
116.1    1907
116.12   1862
116.14   1875
116.16   1915
116.18   1888
116.2    1875
116.22   1907
116.24   1902
116.26   1861
116.28   1882
116.3    1852
116.32   1841
116.34   1863
116.36   1886
116.38   1842
116.4    1856
116.42   1845
116.44   1851
116.46   1848
116.48   1906
116.5    1911
116.52   1913
116.54   1889
116.56   1873
116.58   1877
116.6    1893
116.62   1900
116.64   1897
116.66   1913
116.68   1892
116.7    1885
116.72   1875
116.74   1923
116.76   1888
116.78   1899
116.8    1925
116.82   1928
116.84   1908
116.86   1928
116.88   1926
116.9    1945
116.92   1893
116.94   1916
116.96   1919
116.98   1922
117.0    1965
117.02   1962
117.04   1890
117.06   1929
117.08   1918
117.1    1919
117.12   1920
117.14   1895
117.16   1925
117.18   1918
117.2    1908
117.22   1928
117.24   1864
117.26   1942
117.28   1918
117.3    1951
117.32   1960
117.34   1984
117.36   1953
117.38   1906
117.4    1937
117.42   1940
117.44   1927
117.46   1922
117.48   1927
117.5    1928
117.52   1923
117.54   1968
117.56   1974
117.58   1977
117.6    1922
117.62   1919
117.64   1940
117.66   1954
117.68   1906
117.7    1909
117.72   1901
117.74   1959
117.76   1953
117.78   1943
117.8    1972
117.82   1958
117.84   1954
117.86   1975
117.88   1957
117.9    1923
117.92   1954
117.94   1975
117.96   1955
117.98   1906
118.0    1926
118.02   1941
118.04   1965
118.06   1967
118.08   1970
118.1    1921
118.12   1953
118.14   1944
118.16   1951
118.18   1979
118.2    1987
118.22   1926
118.24   1939
118.26   1917
118.28   1964
118.3    1974
118.32   1974
118.34   1939
118.36   1966
118.38   1971
118.4    1990
118.42   1940
118.44   1937
118.46   1977
118.48   1952
118.5    1921
118.52   1956
118.54   1975
118.56   1986
118.58   1953
118.6    1947
118.62   1909
118.64   1922
118.66   1957
118.68   1963
118.7    1932
118.72   1964
118.74   1923
118.76   1932
118.78   1954
118.8    1957
118.82   1977
118.84   1957
118.86   1942
118.88   1968
118.9    1968
118.92   1927
118.94   1964
118.96   2004
118.98   1940
119.0    1944
119.02   1969
119.04   1916
119.06   1968
119.08   1946
119.1    1950
119.12   1910
119.14   1934
119.16   1954
119.18   1931
119.2    1914
119.22   1996
119.24   1966
119.26   1957
119.28   1967
119.3    1962
119.32   1930
119.34   1883
119.36   1925
119.38   1958
119.4    1945
119.42   1923
119.44   1898
119.46   1944
119.48   1921
119.5    1921
119.52   1925
119.54   1942
119.56   1923
119.58   1936
119.6    1929
119.62   1956
119.64   1943
119.66   1913
119.68   1946
119.7    1994
119.72   1932
119.74   1893
119.76   1925
119.78   1956
119.8    1937
119.82   1936
119.84   1933
119.86   1941
119.88   1994
119.9    1971
119.92   1934
119.94   1927
119.96   1923
119.98   1922
120.0    1894
